time[s] x1[m] x2[m] x1_dot[m/s] x2_dot[m/s]
0.000000000000000000e+00 0.000000000000000000e+00 0.000000000000000000e+00 0.000000000000000000e+00 0.000000000000000000e+00
9.999999999999999124e-05 6.648008636842836705e-08 7.989731699175446544e-15 1.329554743235276644e-03 2.404917006183488249e-10
1.100000000000000066e-03 8.038400841565026842e-06 1.169833654653796322e-11 1.460958012352889246e-02 3.296809469859249913e-08
1.110000000000000049e-02 8.126780354141887805e-04 2.290027001130234108e-08 1.458402365445791438e-01 7.272442098721371438e-06
5.678597349146113915e-02 2.054815237647952819e-02 9.551036090369527398e-06 7.074643681533453465e-01 6.434229630499667526e-04
1.530799932720517953e-01 1.374677258682510117e-01 4.351953208600480949e-04 1.669670103494697244e+00 1.095888254127034243e-02
2.530799932720517731e-01 3.397788704030847429e-01 2.989802141729721880e-03 2.304585033497811963e+00 4.489855734451826674e-02
3.530799932720517509e-01 5.841733744893583546e-01 1.045602935663719930e-02 2.528452962606296595e+00 1.098259116306132543e-01
4.530799932720517287e-01 8.373377348498427519e-01 2.601245437969847835e-02 2.495165295398464878e+00 2.063164581245029994e-01
5.530799932720517065e-01 1.073809733562105961e+00 5.261935900106710917e-02 2.181202754216392314e+00 3.296317582170342764e-01
6.530799932720516843e-01 1.264022106857237482e+00 9.250856283375041844e-02 1.597409279869794307e+00 4.698781259070650140e-01
7.530799932720516621e-01 1.393996713775230933e+00 1.466916730828986548e-01 1.016261152631075415e+00 6.130311766133035301e-01
8.530799932720516399e-01 1.469047179006411241e+00 2.147304884173424910e-01 4.991809603120499483e-01 7.446929550213317039e-01
9.530799932720516177e-01 1.498125989355448162e+00 2.948153136012369169e-01 9.950233839826538862e-02 8.520008968026586693e-01
1.053079993272051595e+00 1.493079539802956601e+00 3.839738691949021732e-01 -1.662468341564078411e-01 9.247125500802662046e-01
1.153079993272051684e+00 1.471975999489562037e+00 4.783769187826109048e-01 -2.241766375434732228e-01 9.561569745412379362e-01
1.253079993272051773e+00 1.455736716956700372e+00 5.737569803444716454e-01 -6.660309545678411158e-02 9.443223852640706406e-01
1.353079993272051862e+00 1.460089475331907360e+00 6.658849646542978062e-01 1.447479244246091534e-01 8.918699968972563230e-01
1.453079993272051951e+00 1.484496785449803236e+00 7.509512411781822383e-01 3.434716798442363772e-01 8.040751452297425494e-01
1.553079993272052040e+00 1.526880458777294614e+00 8.257394711910429619e-01 4.943091457567890812e-01 6.874772833774303038e-01
1.653079993272052128e+00 1.582375972128150732e+00 8.877247560482736111e-01 6.086368500435590523e-01 5.492390886437225062e-01
1.753079993272052217e+00 1.647048225984172332e+00 9.351147848123770867e-01 6.813401861311365604e-01 3.968241516910712141e-01
1.853079993272052306e+00 1.717917954058371111e+00 9.668676887844199763e-01 7.284318442137306393e-01 2.377517181300868032e-01
1.953079993272052395e+00 1.790620653915854454e+00 9.826884413127403572e-01 7.107446358742465220e-01 7.934733061479487537e-02
2.053079993272052484e+00 1.856327786812038250e+00 9.829722835875814857e-01 5.868275877519860684e-01 -7.206687172197584479e-02
2.153079993272052572e+00 1.905358510741622657e+00 9.686629714256859147e-01 3.793769599758787803e-01 -2.118979609511286166e-01
2.253079993272052661e+00 1.929622334432337327e+00 9.410754605082446433e-01 1.001410293438093069e-01 -3.373034140352144106e-01
2.353079993272052750e+00 1.925358499946104862e+00 9.017276913627598756e-01 -1.837531766891383755e-01 -4.469694243242676168e-01
2.453079993272052839e+00 1.893165177399785293e+00 8.522237803191647920e-01 -4.587817015748526517e-01 -5.403885480998684709e-01
2.553079993272052928e+00 1.835452375377924605e+00 7.941913017128343633e-01 -6.715657956808886997e-01 -6.175629371988462513e-01
2.653079993272053017e+00 1.763730597331807370e+00 7.292619128851529631e-01 -7.556835788318003733e-01 -6.781702142980987613e-01
2.753079993272053105e+00 1.683619342642631134e+00 6.591475989278356984e-01 -8.435018365196504941e-01 -7.211024627357227601e-01
2.853079993272053194e+00 1.596702660178347388e+00 5.856514860886866680e-01 -8.913129741964656017e-01 -7.457340553602195277e-01
2.953079993272053283e+00 1.506038211223979850e+00 5.106207712073865812e-01 -9.115518669911245597e-01 -7.517818974278873689e-01
3.053079993272053372e+00 1.417038875841715173e+00 4.359153140784604030e-01 -8.577266330714458098e-01 -7.392114008793020385e-01
3.153079993272053461e+00 1.335118834039767721e+00 3.634052623640038338e-01 -7.874314378917858237e-01 -7.078561251273424171e-01
3.253079993272053549e+00 1.258182355260055729e+00 2.949576848272613128e-01 -7.483542826721344410e-01 -6.581374890411388900e-01
3.353079993272053638e+00 1.186445417175625572e+00 2.323417354294236292e-01 -6.913211929560327818e-01 -5.915096703519612253e-01
3.453079993272053727e+00 1.118479916878689417e+00 1.771501358023329087e-01 -6.648042353505104751e-01 -5.100912620130276798e-01
3.553079993272053816e+00 1.055178139988734998e+00 1.307184392569140097e-01 -5.999706981164475428e-01 -4.168167812973397335e-01
3.653079993272053905e+00 9.971540805440753941e-01 9.407860374487309052e-02 -5.644005027160526877e-01 -3.148195231569347330e-01
3.753079993272053994e+00 9.443027423603594928e-01 6.792227992192512165e-02 -4.725505093394767875e-01 -2.077662563183235722e-01
3.853079993272054082e+00 9.049299398155621343e-01 5.258800565810865801e-02 -3.190644520363234982e-01 -9.880533796545502845e-02
3.953079993272054171e+00 8.784270029063013796e-01 4.814090987201442157e-02 -2.192491914171428302e-01 9.517694154227401837e-03
4.053079993272054260e+00 8.604188176201493787e-01 5.436767012426139273e-02 -1.378309032384074373e-01 1.141210583056586209e-01
4.153079993272053905e+00 8.521741880633131316e-01 7.073544850997171007e-02 -2.591347278373841434e-02 2.118623648181831576e-01
4.253079993272053549e+00 8.535861004833197319e-01 9.642473812439258940e-02 4.583879468716159367e-02 3.001300799548844989e-01
4.353079993272053194e+00 8.614463834776416862e-01 1.303580989498148990e-01 1.170886515111367460e-01 3.763166798264583335e-01
4.453079993272052839e+00 8.777724543704364946e-01 1.712133113911471494e-01 2.067745409959442782e-01 4.382902100811471580e-01
4.553079993272052484e+00 9.005336849623117867e-01 2.174953704390977793e-01 2.384221046636106345e-01 4.846295339493281173e-01
4.653079993272052128e+00 9.271612408724271281e-01 2.675721025719817736e-01 3.151290008551095867e-01 5.140063913064567558e-01
4.753079993272051773e+00 9.649745725039460265e-01 3.197268246136830139e-01 4.308206637304681230e-01 5.263301396777906316e-01
4.853079993272051418e+00 1.011803524256534192e+00 3.723047802734648637e-01 5.092697000517197869e-01 5.226559938702028951e-01
4.953079993272051063e+00 1.067769754179190178e+00 4.237707685991638495e-01 6.053989483715609410e-01 5.043976379223740203e-01
5.053079993272050707e+00 1.130654084732164444e+00 4.727666791493518317e-01 6.467767964537511904e-01 4.735963089015009508e-01
5.153079993272050352e+00 1.197963165431023214e+00 5.181387476484530241e-01 7.016671823579984091e-01 4.322842998083375465e-01
5.253079993272049997e+00 1.269388961756510392e+00 5.589551215213952595e-01 7.168751026541255733e-01 3.829070182371224762e-01
5.353079993272049641e+00 1.339722329630178121e+00 5.945286014153525755e-01 6.776184736219004190e-01 3.277683581694372794e-01
5.453079993272049286e+00 1.402805647150993984e+00 6.243746557645395434e-01 5.836507122175472739e-01 2.685814427473168231e-01
5.553079993272048931e+00 1.456720023797980046e+00 6.481508317017452558e-01 4.890184199868407577e-01 2.065800710064634171e-01
5.653079993272048576e+00 1.499914967329505355e+00 6.656370016773051068e-01 3.801306823240523380e-01 1.429615757009972676e-01
5.753079993272048220e+00 1.533391296049512853e+00 6.767279553556203586e-01 2.850155199820164076e-01 7.889633895784198270e-02
5.853079993272047865e+00 1.556489259169004047e+00 6.814441152776942179e-01 1.837091717912974209e-01 1.566033457477920832e-02
5.953079993272047510e+00 1.572354256181750509e+00 6.799305956901980919e-01 1.400458682989150494e-01 -4.542970839768216418e-02
6.053079993272047155e+00 1.583524667796214036e+00 6.724911401837261327e-01 7.525743368585860460e-02 -1.025512759754491493e-01
6.153079993272046799e+00 1.587757184688158185e+00 6.596031976236340633e-01 1.308143818798173513e-02 -1.541887306293593107e-01
6.253079993272046444e+00 1.584523080221849289e+00 6.418767407971325278e-01 -8.576723268548885892e-02 -1.991598010353563264e-01
6.353079993272046089e+00 1.571708341834798572e+00 6.200122008844750621e-01 -1.692475484647418815e-01 -2.368955242684488427e-01
6.453079993272045733e+00 1.546924738402482680e+00 5.947464052662451151e-01 -3.432711206361499512e-01 -2.672349986608107408e-01
6.553079993272045378e+00 1.504150738641704343e+00 5.667759578506289531e-01 -5.023242215599618143e-01 -2.912427827247018874e-01
6.653079993272045023e+00 1.445776397375042377e+00 5.366636901906428614e-01 -6.673984281794376194e-01 -3.102943777685236992e-01
6.753079993272044668e+00 1.373242478512454845e+00 5.048328631051234305e-01 -7.653132286032867659e-01 -3.258386350073566029e-01
6.853079993272044312e+00 1.295026401977586561e+00 4.715867988631814445e-01 -7.904312403390411079e-01 -3.386297106179457228e-01
6.953079993272043957e+00 1.217221485558152461e+00 4.372040952002229641e-01 -7.544777758662992717e-01 -3.484791877244236002e-01
7.053079993272043602e+00 1.145879749925335256e+00 4.020197955963678571e-01 -6.703572624698850291e-01 -3.544444000010927853e-01
7.153079993272043247e+00 1.082119209122914150e+00 3.664906211846761797e-01 -6.081759477293350313e-01 -3.551694647157315754e-01
7.253079993272042891e+00 1.025920844709620638e+00 3.311943707032160567e-01 -5.039473007255195203e-01 -3.496235829982116128e-01
7.353079993272042536e+00 9.808047858954485054e-01 2.968151984704263113e-01 -4.109297755557606568e-01 -3.366186926734077156e-01
7.453079993272042181e+00 9.431641205099808856e-01 2.641457036594899166e-01 -3.370278338791783401e-01 -3.153794238894716551e-01
7.553079993272041825e+00 9.126830173259681267e-01 2.340195550257549439e-01 -2.795396101834329849e-01 -2.857559810377878207e-01
7.653079993272041470e+00 8.883119579199537652e-01 2.072618565812667235e-01 -2.006415349191271180e-01 -2.481067450552542630e-01
7.753079993272041115e+00 8.708699040771636923e-01 1.846478813108075046e-01 -1.574717591678238826e-01 -2.030035925316967527e-01
7.853079993272040760e+00 8.585798062000358222e-01 1.668707730180453985e-01 -7.818192266313279959e-02 -1.515928585934005757e-01
7.953079993272040404e+00 8.533316717110930316e-01 1.545015766415089309e-01 -4.274938343820963021e-02 -9.505177765450283089e-02
8.053079993272040937e+00 8.486828829290024023e-01 1.479699576557448881e-01 -5.225666760340639400e-02 -3.524670658411600821e-02
8.153079993272040582e+00 8.441153881226642897e-01 1.474745080573482692e-01 -2.175229652129371041e-02 2.524408398596076492e-02
8.253079993272040227e+00 8.456059432542136767e-01 1.529718459470183478e-01 3.769662300925409604e-02 8.434482238766839723e-02
8.353079993272039871e+00 8.494275007758622653e-01 1.642385880156447819e-01 3.997029694138208578e-02 1.402726774798159493e-01
8.453079993272039516e+00 8.534977996393074973e-01 1.808457244062302016e-01 3.665221304308323436e-02 1.907860190065357175e-01
8.553079993272039161e+00 8.572928680619337216e-01 2.021430596790457779e-01 4.837830801236316092e-02 2.337369285322767054e-01
8.653079993272038806e+00 8.647655899665879220e-01 2.272872048829907565e-01 1.088888343069581155e-01 2.675458390630373051e-01
8.753079993272038450e+00 8.801178275037515597e-01 2.553286457196406456e-01 1.967916781634876378e-01 2.916756801184370307e-01
8.853079993272038095e+00 9.036759741610956853e-01 2.853063997438783361e-01 2.755162126380887866e-01 3.063345710347745721e-01
8.953079993272037740e+00 9.353310211653751427e-01 3.162979267132347561e-01 3.575316903387451006e-01 3.120787176736814494e-01
9.053079993272037385e+00 9.750769148881431869e-01 3.474564635925715961e-01 4.292489730602225828e-01 3.098617337757982870e-01
9.153079993272037029e+00 1.017831763376070731e+00 3.780393011076527143e-01 4.110994059612172458e-01 3.006764397359134589e-01
9.253079993272036674e+00 1.055651618475589082e+00 4.073658977731210440e-01 3.390373461789533138e-01 2.847022738352946725e-01
9.353079993272036319e+00 1.085644729123502294e+00 4.347426036909743385e-01 2.693288918694336509e-01 2.616241855712146402e-01
9.453079993272035964e+00 1.110405267330227597e+00 4.594538930001095811e-01 2.239299901260893844e-01 2.314627058280985250e-01
9.553079993272035608e+00 1.131370202625431975e+00 4.808192644056892839e-01 2.058918586373569559e-01 1.948486388434778060e-01
9.653079993272035253e+00 1.152467576646035052e+00 4.982512340282637120e-01 2.174499348425548984e-01 1.530821260678518758e-01
9.753079993272034898e+00 1.175617089855235164e+00 5.113282592366902302e-01 2.437774665351284675e-01 1.081084814093637159e-01
9.853079993272034542e+00 1.199808112825984541e+00 5.198393826153213659e-01 2.408728757442983037e-01 6.210971016823935847e-02
9.953079993272034187e+00 1.225340075872504819e+00 5.237829011160093362e-01 2.682795940271201496e-01 1.711298157058128988e-02
1.005307999327203383e+01 1.250525347233334417e+00 5.233670028280971165e-01 2.217458107577771342e-01 -2.478080846445699509e-02
1.015307999327203348e+01 1.269342414790138207e+00 5.189696664652581060e-01 1.576403389871194882e-01 -6.239637922433519113e-02
1.025307999327203312e+01 1.280845126502079934e+00 5.110516041179428148e-01 5.903270325605375346e-02 -9.512163616701722890e-02
1.035307999327203277e+01 1.279891315065185164e+00 5.001067157883943848e-01 -7.648954742769104032e-02 -1.230294639252674516e-01
1.045307999327203241e+01 1.265071174054061887e+00 4.865811663039571466e-01 -2.235604722787760956e-01 -1.468870752880095110e-01
1.055307999327203206e+01 1.237013543450572906e+00 4.708290558977373808e-01 -3.216436019014816128e-01 -1.677284729182538237e-01
1.065307999327203170e+01 1.202233153823308864e+00 4.531173569230855236e-01 -3.671944805074375262e-01 -1.860965782372702160e-01
1.075307999327203134e+01 1.166495315642466446e+00 4.336975698731447282e-01 -3.388014087022402365e-01 -2.017907455034830821e-01
1.085307999327203099e+01 1.133643363224051237e+00 4.128798098991623422e-01 -3.221847305106819714e-01 -2.138852731565916432e-01
1.095307999327203063e+01 1.101756832805151687e+00 3.910665607600722904e-01 -3.204807727187833355e-01 -2.216081168450466932e-01
1.105307999327203028e+01 1.070464795235351430e+00 3.687162747938614316e-01 -2.895065963959381206e-01 -2.245804450961725596e-01
1.115307999327202992e+01 1.043510132213806285e+00 3.463272698359189383e-01 -2.709100632036701706e-01 -2.222640340414299698e-01
1.125307999327202957e+01 1.015270647654657798e+00 3.244441819754346201e-01 -2.781492594657631878e-01 -2.145447949046548064e-01
1.135307999327202921e+01 9.890590515264817695e-01 3.035868189999971212e-01 -2.549987421236606933e-01 -2.017630414690470275e-01
1.145307999327202886e+01 9.635257184874197467e-01 2.842511828663383255e-01 -2.513449700570906109e-01 -1.842087130845629361e-01
1.155307999327202850e+01 9.402081922321426921e-01 2.668832823159337231e-01 -2.025619393108269994e-01 -1.624933380699231933e-01
1.165307999327202815e+01 9.253152308034178208e-01 2.518852872404473420e-01 -9.592594632131967725e-02 -1.367679676874875572e-01
1.175307999327202779e+01 9.189727613840775744e-01 2.396738201141093150e-01 -3.889959886171534542e-02 -1.067546086075783079e-01
1.185307999327202744e+01 9.176940675730154151e-01 2.306650951200052702e-01 1.808416867002312495e-02 -7.282140947567314337e-02
1.195307999327202708e+01 9.218557999222815047e-01 2.252193243864566985e-01 4.968892923771813658e-02 -3.561149112000145528e-02
1.205307999327202673e+01 9.251680849983241473e-01 2.236129173186042207e-01 1.644808107163957256e-02 3.664736645650132352e-03
1.215307999327202637e+01 9.250553143098192432e-01 2.259529262190874133e-01 -2.735329043435579671e-02 4.295828441880715498e-02
1.225307999327202602e+01 9.192677280659200534e-01 2.321279195035155507e-01 -7.896964845304263458e-02 7.995021249224601445e-02
1.235307999327202566e+01 9.097773859815175834e-01 2.417907356636478933e-01 -1.186818786393646907e-01 1.123872153306202937e-01
1.245307999327202531e+01 8.959246590541413147e-01 2.543880734303767266e-01 -1.418012372425359047e-01 1.383224927511689240e-01
1.255307999327202495e+01 8.842148801617369935e-01 2.691936156845497474e-01 -9.140114231875680340e-02 1.564586660877526347e-01
1.265307999327202459e+01 8.760319015215004557e-01 2.854137750446233412e-01 -7.713777651138221947e-02 1.666019671885647369e-01
1.275307999327202424e+01 8.711937607794443261e-01 3.022442146098640592e-01 1.876628587580420060e-03 1.686996670093832140e-01
1.285307999327202388e+01 8.779765569139840187e-01 3.189198000022150370e-01 1.289374415904891158e-01 1.638105854131831074e-01
1.295307999327202353e+01 8.968364592157089810e-01 3.348397165855265811e-01 2.493188682315741200e-01 1.539294707271523510e-01
1.305307999327202317e+01 9.265126816997546477e-01 3.496101457613065011e-01 3.347151922188995044e-01 1.411658921161859370e-01
1.315307999327202282e+01 9.618468279536769305e-01 3.630357711278213162e-01 3.590465236413820649e-01 1.272628077226555243e-01
1.325307999327202246e+01 9.973466162424206027e-01 3.750567061854749862e-01 3.582942444813586591e-01 1.131671519030897355e-01
1.335307999327202211e+01 1.032878906854446610e+00 3.856833066481930028e-01 3.329819320675563854e-01 9.948293700889035418e-02
1.345307999327202175e+01 1.061825037079265899e+00 3.949722139201019555e-01 2.464505989894817395e-01 8.633654918696423430e-02
1.355307999327202140e+01 1.080056878755907723e+00 4.029457940898134027e-01 1.028346090426889847e-01 7.301337864383272702e-02
1.365307999327202104e+01 1.083477212775669551e+00 4.095215464593239818e-01 -1.540579302731058531e-02 5.811058266015103890e-02
1.375307999327202069e+01 1.079163763838003609e+00 4.144800056127878607e-01 -6.166223762071774972e-02 4.060406787278777324e-02
1.385307999327202033e+01 1.074054949329990682e+00 4.175586479519586280e-01 -3.227336661886497093e-02 2.063223043788110431e-02
1.395307999327201998e+01 1.072799239863778675e+00 4.185630928649727855e-01 1.052162845458894103e-02 -6.377983195994078869e-04
1.405307999327201962e+01 1.076519893726196830e+00 4.174391470179260044e-01 5.609188563815713235e-02 -2.166146981789109430e-02
1.415307999327201927e+01 1.081913143435197400e+00 4.142879187691442811e-01 4.212187371001312880e-02 -4.100433550315971121e-02
1.425307999327201891e+01 1.082325277595153734e+00 4.093145986061997310e-01 -4.557753362693583304e-02 -5.809884746200848910e-02
1.435307999327201856e+01 1.072799297750168357e+00 4.027275663155397978e-01 -1.372394528738622443e-01 -7.341187193368346742e-02
1.445307999327201820e+01 1.056118617808456062e+00 3.946700619740693972e-01 -1.912794522609220782e-01 -8.757435114076206339e-02
1.455307999327201784e+01 1.035138562008836915e+00 3.852442750479426747e-01 -2.295446850892704782e-01 -1.007826221422510188e-01
1.465307999327201749e+01 1.009971612348373959e+00 3.745444544877679638e-01 -2.721540502208615875e-01 -1.130679698591070814e-01
1.475307999327201713e+01 9.811065214171796889e-01 3.626588998064831926e-01 -3.039533030231431621e-01 -1.245023275569046434e-01
1.485307999327201678e+01 9.495356973308152204e-01 3.496729158168743745e-01 -3.229418313331844925e-01 -1.350645238410769777e-01
1.495307999327201642e+01 9.189671834883019752e-01 3.356826104705042946e-01 -2.715194461832129980e-01 -1.444936678465173208e-01
1.505307999327201607e+01 8.959926321586417775e-01 3.208484708743241653e-01 -1.990119447790729690e-01 -1.516882137342764059e-01
1.515307999327201571e+01 8.782934365963407375e-01 3.054624365817840692e-01 -1.460405965590673705e-01 -1.553739298682074166e-01
1.525307999327201536e+01 8.682023257845529196e-01 2.899240724956126947e-01 -5.743756933169984202e-02 -1.545348446388108143e-01
1.535307999327201500e+01 8.659938774453085353e-01 2.747453708815012496e-01 9.247012521384517791e-03 -1.480180595952199918e-01
