time[s] x1[m] x2[m] x1_dot[m/s] x2_dot[m/s]
0.000000000000000000e+00 0.000000000000000000e+00 0.000000000000000000e+00 0.000000000000000000e+00 0.000000000000000000e+00
9.999999999999999124e-05 4.404001875662981735e-08 5.292812598938861819e-15 8.807756953479663631e-04 1.593147522277137691e-10
1.100000000000000066e-03 5.325851873517547639e-06 7.750416192242973487e-12 9.680372507610937247e-03 2.184293574607176326e-08
1.110000000000000049e-02 5.392215288270091941e-04 1.518656899967440238e-08 9.684377733364006591e-02 4.824189734810811002e-06
9.731815835709008156e-02 3.915601793422199273e-02 5.057915898983913474e-05 7.759135910188481589e-01 2.010074218137246262e-03
1.973181583570901010e-01 1.484706970344652766e-01 7.768215622694353518e-04 1.372813547109727583e+00 1.515174950554773123e-02
2.973181583570900788e-01 3.045387036018851745e-01 3.719975090935898066e-03 1.698627242005565918e+00 4.730641942551938595e-02
3.973181583570900566e-01 4.802275648805123254e-01 1.098584322730082607e-02 1.786071964650547850e+00 1.017494083621107159e-01
4.973181583570900344e-01 6.558867304051152480e-01 2.478153175275091963e-02 1.693387830620451950e+00 1.774269494431034988e-01
5.973181583570900122e-01 8.114353785086674264e-01 4.702703133370952915e-02 1.380670946794345655e+00 2.696462911730939660e-01
6.973181583570899900e-01 9.276598823846260444e-01 7.898506532255908374e-02 9.427514728720258752e-01 3.700205222937261729e-01
7.973181583570899678e-01 1.001163238540039524e+00 1.209566829762605544e-01 5.309698869139458655e-01 4.681793035107856271e-01
8.973181583570899456e-01 1.035529568218290342e+00 1.722103730072674366e-01 1.718376404397890522e-01 5.540617950143947867e-01
9.973181583570899233e-01 1.038246522559140628e+00 2.310667196120786415e-01 -1.035766536636035240e-01 6.189416684856841044e-01
1.097318158357089901e+00 1.019453187138508632e+00 2.950760194956036364e-01 -2.451188829814164860e-01 6.562469555637663321e-01
1.197318158357089990e+00 9.942267860413352976e-01 3.612758027298160202e-01 -2.311679787640369133e-01 6.624582642938924293e-01
1.297318158357090079e+00 9.783183660750556232e-01 4.265292749696057428e-01 -7.705412250884638437e-02 6.376339648990340114e-01
1.397318158357090168e+00 9.787419534109998986e-01 4.878713619041783467e-01 8.748868831350148367e-02 5.849108944858543158e-01
1.497318158357090256e+00 9.961152383999126725e-01 5.427358752912907480e-01 2.545805128344166279e-01 5.089580313301220738e-01
1.597318158357090345e+00 1.028412653376356678e+00 5.890743052039799643e-01 3.879899065787547618e-01 4.153531798089166172e-01
1.697318158357090434e+00 1.072620931127176380e+00 6.254145599772804598e-01 4.885349762344279867e-01 3.099910392766482281e-01
1.797318158357090523e+00 1.125059786299768660e+00 6.508774238825290048e-01 5.556971079654331458e-01 1.987703520724004302e-01
1.897318158357090612e+00 1.182278853108548411e+00 6.651619007071803980e-01 5.792113800183265049e-01 8.732674706576555590e-02
1.997318158357090701e+00 1.238453430914602915e+00 6.685027883864381737e-01 5.289777971178702964e-01 -1.935831521810092715e-02
2.097318158357090567e+00 1.285342570105504567e+00 6.615746010378066311e-01 3.981593126151359296e-01 -1.175633922605942988e-01
2.197318158357090656e+00 1.315860557060214431e+00 6.453486538691970420e-01 2.013101458448849912e-01 -2.050595814566166242e-01
2.297318158357090745e+00 1.324461129190326103e+00 6.209489531734967427e-01 -3.012307387036067263e-02 -2.809999854816177534e-01
2.397318158357090834e+00 1.309987846766404118e+00 5.895303889184794199e-01 -2.578991108716778280e-01 -3.455029284094142672e-01
2.497318158357090923e+00 1.273308169807278345e+00 5.522106177951797701e-01 -4.699144329673566878e-01 -3.991475062572524268e-01
2.597318158357091011e+00 1.219074671115526476e+00 5.100384119191384569e-01 -5.946636798057705064e-01 -4.426358345611435263e-01
2.697318158357091100e+00 1.156235796449742947e+00 4.640216342447467390e-01 -6.627470720299217799e-01 -4.759680636601822945e-01
2.797318158357091189e+00 1.087280031022311633e+00 4.151959415444393953e-01 -7.075488836420933403e-01 -4.987688251366392822e-01
2.897318158357091278e+00 1.015802509306542589e+00 3.646296507618657645e-01 -7.187192420286557804e-01 -5.107164593963939847e-01
2.997318158357091367e+00 9.450294283952134222e-01 3.134260426630343654e-01 -6.865757757252143323e-01 -5.114555156014556347e-01
3.097318158357091455e+00 8.800869634791934626e-01 2.627286816126546132e-01 -6.085675067264612048e-01 -5.004844433864151787e-01
3.197318158357091544e+00 8.227656738284290228e-01 2.137394580828523849e-01 -5.435383473734286541e-01 -4.772296834955711553e-01
3.297318158357091633e+00 7.713962228239054086e-01 1.676914106299133844e-01 -4.802036200015538103e-01 -4.417308970391335965e-01
3.397318158357091722e+00 7.261620718843273536e-01 1.257815475374583769e-01 -4.317046423276559297e-01 -3.946094041516990392e-01
3.497318158357091811e+00 6.849193385478101748e-01 8.911441780150949898e-02 -3.882133246370832458e-01 -3.371566326501650446e-01
3.597318158357091900e+00 6.485686728559415526e-01 5.863511618569368367e-02 -3.447986742294502083e-01 -2.711695671411566977e-01
3.697318158357091988e+00 6.152265801585494742e-01 3.509209463461976375e-02 -3.176742394635876376e-01 -1.988532908031871993e-01
3.797318158357092077e+00 5.871122588601861425e-01 1.898975469441210179e-02 -2.361616292074826817e-01 -1.227534551385923017e-01
3.897318158357092166e+00 5.677863443534368892e-01 1.059734946107554997e-02 -1.572977390785346707e-01 -4.498193346692727634e-02
3.997318158357092255e+00 5.545926977462521945e-01 9.976955855818104776e-03 -1.090149146645574274e-01 3.228338094618257714e-02
4.097318158357092344e+00 5.462997729844459860e-01 1.695312568747398344e-02 -5.157248085124600812e-02 1.065308729332778287e-01
4.197318158357091988e+00 5.446153931863138009e-01 3.110599577176739045e-02 1.298415555723630987e-02 1.754756987410273639e-01
4.297318158357091633e+00 5.479874682486920445e-01 5.180423871341094388e-02 5.496871520649245640e-02 2.370973208799749266e-01
4.397318158357091278e+00 5.563307491502355040e-01 7.821672060567019802e-02 1.155215417099542258e-01 2.894801347904176203e-01
4.497318158357090923e+00 5.709445740309430084e-01 1.093470474970251183e-01 1.697063473833110292e-01 3.312782297998851377e-01
4.597318158357090567e+00 5.891215999747527743e-01 1.440856226173902743e-01 1.982579028830415147e-01 3.614747531698463967e-01
4.697318158357090212e+00 6.129199122999235971e-01 1.812304053471107124e-01 2.842065152397457162e-01 3.793743639711841809e-01
4.797318158357089857e+00 6.451046582853849909e-01 2.195633373805006283e-01 3.531613975128857774e-01 3.853626891215447547e-01
4.897318158357089501e+00 6.836912725862508422e-01 2.579319060550540055e-01 4.224538534931491229e-01 3.802387581222699264e-01
4.997318158357089146e+00 7.291314295462520967e-01 2.952808151449393681e-01 4.778853887881346907e-01 3.652128994528945349e-01
5.097318158357088791e+00 7.783422780428154164e-01 3.306917034474273209e-01 5.087883153624933597e-01 3.417033610156660073e-01
5.197318158357088436e+00 8.310551731156157196e-01 3.633881030713271842e-01 5.395989921845411041e-01 3.112039852356098812e-01
5.297318158357088080e+00 8.848732083408401561e-01 3.927555852120463431e-01 5.315006345736227322e-01 2.753848251197082431e-01
5.397318158357087725e+00 9.357878652490217997e-01 4.183343170091853858e-01 4.780321422638884044e-01 2.356258764697588548e-01
5.497318158357087370e+00 9.800247409048303826e-01 4.397807584396296043e-01 4.080143526441841195e-01 1.928653110746143540e-01
5.597318158357087015e+00 1.016790536322918159e+00 4.568335807589302133e-01 3.235290655261447990e-01 1.478845656256778662e-01
5.697318158357086659e+00 1.045102532710681542e+00 4.693072418763501452e-01 2.457258003810690872e-01 1.013989393555929930e-01
5.797318158357086304e+00 1.065602743080840575e+00 4.770902566358083408e-01 1.620313567167602220e-01 5.421547982367855983e-02
5.897318158357085949e+00 1.078221164850354130e+00 4.801540769253846430e-01 9.839491887760419553e-02 7.155315542944844232e-03
5.997318158357085593e+00 1.086254976423960406e+00 4.785612631386495508e-01 5.992984255941272848e-02 -3.869516852423381809e-02
6.097318158357085238e+00 1.089412058337692057e+00 4.724992325681984240e-01 4.617689886212784922e-03 -8.203456471982462084e-02
6.197318158357084883e+00 1.087624516003280695e+00 4.622739883680787587e-01 -4.528589076713435829e-02 -1.217838503365844538e-01
6.297318158357084528e+00 1.079446193188088321e+00 4.482921563872761528e-01 -1.139189735775300860e-01 -1.570612469441768910e-01
6.397318158357084172e+00 1.065034665976002382e+00 4.310290862149138702e-01 -1.868434524932178209e-01 -1.873238947030006762e-01
6.497318158357083817e+00 1.039946850654471566e+00 4.109990286043145868e-01 -3.116635903087872084e-01 -2.124738057630960464e-01
6.597318158357083462e+00 1.003778751195625096e+00 3.886837759640135448e-01 -4.144934493283318755e-01 -2.331318333267104748e-01
6.697318158357083107e+00 9.567522959275055472e-01 3.644999000695587910e-01 -5.181695691732504105e-01 -2.499817401622335400e-01
6.797318158357082751e+00 9.023119310834990525e-01 3.387907301310606467e-01 -5.629219686673968548e-01 -2.637060809233833791e-01
6.897318158357082396e+00 8.453925611476849067e-01 3.118592542930180844e-01 -5.684875887954305984e-01 -2.743999588367003750e-01
6.997318158357082041e+00 7.901223503956792404e-01 2.840242928685971502e-01 -5.301004318516994163e-01 -2.816702487730017301e-01
7.097318158357081685e+00 7.398760310049855571e-01 2.556670428871022915e-01 -4.778358158926098720e-01 -2.846846219037583725e-01
7.197318158357081330e+00 6.942522366371491893e-01 2.272575998199661829e-01 -4.291899013840585475e-01 -2.826025340904568250e-01
7.297318158357080975e+00 6.554575827444532043e-01 1.993389633740640099e-01 -3.470460736948838831e-01 -2.747355908343745434e-01
7.397318158357080620e+00 6.235805913371541553e-01 1.725287924454032840e-01 -2.930730270237806301e-01 -2.603466354875889621e-01
7.497318158357080264e+00 5.972247887256697529e-01 1.474948886433092854e-01 -2.359838388296545131e-01 -2.392036996060605269e-01
7.597318158357079909e+00 5.756334306522860045e-01 1.249094446236488909e-01 -1.927468937620173406e-01 -2.114388292196409669e-01
7.697318158357079554e+00 5.594368926301206413e-01 1.054116753963028480e-01 -1.367661259308672883e-01 -1.775355041803595990e-01
7.797318158357079199e+00 5.471743803118291893e-01 8.958381575435507560e-02 -1.027971172645426312e-01 -1.382107416007984924e-01
7.897318158357078843e+00 5.400502731796785749e-01 7.791422928069124954e-02 -4.547372601811922738e-02 -9.453498258014295108e-02
7.997318158357078488e+00 5.362050760262563331e-01 7.078458751257032944e-02 -3.590741549375706804e-02 -4.765763612123982002e-02
8.097318158357078133e+00 5.325767839496570177e-01 6.842993505523595199e-02 -3.411066213135035413e-02 6.310681765420156353e-04
8.197318158357077778e+00 5.312332673094691815e-01 7.089297667359985289e-02 1.389298792090160745e-02 4.841245038643343657e-02
8.297318158357077422e+00 5.341782998431782170e-01 7.804820862035567741e-02 3.644394433570222191e-02 9.425158301014452400e-02
8.397318158357077067e+00 5.383632823538410106e-01 8.962627470634527971e-02 4.778417001465792152e-02 1.365838708778662758e-01
8.497318158357076712e+00 5.433035247810168444e-01 1.051935325065018606e-01 5.210676491987821513e-02 1.737732472365021430e-01
8.597318158357076356e+00 5.497953388107983397e-01 1.241608605564878121e-01 8.282916500274675742e-02 2.043850671038821842e-01
8.697318158357076001e+00 5.608488665451147881e-01 1.458228292449447738e-01 1.424418057131302817e-01 2.275897879019673775e-01
8.797318158357075646e+00 5.782914317644256563e-01 1.694270325048879700e-01 2.044685025695885672e-01 2.432513373662065215e-01
8.897318158357075291e+00 6.017652643510265076e-01 1.942296079299601630e-01 2.653424217606020763e-01 2.516194025729087680e-01
8.997318158357074935e+00 6.313174826230183445e-01 2.195252599577662833e-01 3.258431859366408001e-01 2.532266862781353822e-01
9.097318158357074580e+00 6.659658355083448722e-01 2.446758583643849905e-01 3.554418434467451204e-01 2.488550935051682400e-01
9.197318158357074225e+00 7.003466445594717094e-01 2.691163083001173462e-01 3.262959430115776049e-01 2.390629203448049744e-01
9.297318158357073870e+00 7.302867128371941519e-01 2.923087965293193480e-01 2.706814400935144138e-01 2.238756547117638218e-01
9.397318158357073514e+00 7.551624769515244973e-01 3.137078664756029478e-01 2.298515339553157677e-01 2.031990387956218447e-01
9.497318158357073159e+00 7.761137084205379510e-01 3.327739442627024591e-01 1.910647469842195190e-01 1.772875952859481463e-01
9.597318158357072804e+00 7.944909168539058264e-01 3.490100848230717201e-01 1.795122974261224302e-01 1.467400649511488020e-01
9.697318158357072448e+00 8.122785475123395216e-01 3.620036458667790225e-01 1.794871163696653560e-01 1.126518237555697022e-01
9.797318158357072093e+00 8.303326792461842576e-01 3.714702685562545903e-01 1.762192572068409513e-01 7.645995771179628364e-02
9.897318158357071738e+00 8.474934589797593620e-01 3.772746284389728588e-01 1.735018355536439294e-01 3.963941443044813329e-02
9.997318158357071383e+00 8.650788846404529053e-01 3.794280691231627922e-01 1.685298544232957108e-01 3.714423547300990669e-03
1.009731815835707103e+01 8.794873519846299059e-01 3.780935135876903885e-01 1.182789618741036941e-01 -2.995741778429236724e-02
1.019731815835707067e+01 8.889650660322752085e-01 3.735371395953200890e-01 6.809627620452550489e-02 -6.061404228557341206e-02
1.029731815835707032e+01 8.915926077140603478e-01 3.660882081226252138e-01 -2.063160095992667975e-02 -8.777265847522958131e-02
1.039731815835706996e+01 8.847865535727222897e-01 3.560963945104143047e-01 -1.169634384532425436e-01 -1.115230374031104393e-01
1.049731815835706961e+01 8.678228152229110481e-01 3.438835022571253286e-01 -2.171603969516375243e-01 -1.322858951533087413e-01
1.059731815835706925e+01 8.431906651508259687e-01 3.297221488704387693e-01 -2.705789374250746615e-01 -1.505378148472545363e-01
1.069731815835706890e+01 8.146749360029540421e-01 3.138581103119577054e-01 -2.891330448946922149e-01 -1.663139397293164901e-01
1.079731815835706854e+01 7.866934266710405854e-01 2.965557592176043533e-01 -2.730627115462561649e-01 -1.791838515882907268e-01
1.089731815835706819e+01 7.596310088878236444e-01 2.781420080322715704e-01 -2.678966418041976993e-01 -1.884445976783201970e-01
1.099731815835706783e+01 7.327623462872889792e-01 2.590027298114785381e-01 -2.676937700699079103e-01 -1.936392645107320731e-01
1.109731815835706747e+01 7.077558308972967671e-01 2.395593843817126201e-01 -2.309001861068080697e-01 -1.944591344440715630e-01
1.119731815835706712e+01 6.845081795164729144e-01 2.202713954596039470e-01 -2.396049821828420967e-01 -1.905016138805126213e-01
1.129731815835706676e+01 6.612726271996263172e-01 2.016125927383742300e-01 -2.195245069491678080e-01 -1.819227230578482901e-01
1.139731815835706641e+01 6.398750331087976750e-01 1.840359159712584569e-01 -2.117373929410509836e-01 -1.688898214501350359e-01
1.149731815835706605e+01 6.192983359037737001e-01 1.679698344259653031e-01 -1.958470610069735218e-01 -1.517999910959937915e-01
1.159731815835706570e+01 6.021611837187688110e-01 1.537956249378099882e-01 -1.379408743591727937e-01 -1.311028163536531177e-01
1.169731815835706534e+01 5.919313925993077152e-01 1.418671666057600145e-01 -7.351645695915538792e-02 -1.068717899414070305e-01
1.179731815835706499e+01 5.864400323202486609e-01 1.325346747442948114e-01 -3.596960026079028955e-02 -7.925690532055176818e-02
1.189731815835706463e+01 5.852223168637266104e-01 1.261095750818069794e-01 1.062031034737260377e-02 -4.882557179815486675e-02
1.199731815835706428e+01 5.869107150079896362e-01 1.228409269694736294e-01 1.365441712046589970e-02 -1.628062960587813024e-02
1.209731815835706392e+01 5.875842330063092422e-01 1.228810823151270520e-01 6.327265411980743243e-04 1.708755886786835626e-02
1.219731815835706357e+01 5.861752915271106756e-01 1.262320977583208936e-01 -3.181281535015011153e-02 4.965350089511162690e-02
1.229731815835706321e+01 5.820423747835937744e-01 1.327254981868970785e-01 -4.792234729074773547e-02 7.964679411611250148e-02
1.239731815835706286e+01 5.759224775503869465e-01 1.420239555804115872e-01 -7.490275154988555728e-02 1.055105624713315871e-01
1.249731815835706250e+01 5.688105107238028424e-01 1.536431299943942230e-01 -5.675641334723881271e-02 1.258738376245308599e-01
1.259731815835706215e+01 5.650138960486240647e-01 1.669940763160196184e-01 -2.459675901379567570e-02 1.401112048976868030e-01
1.269731815835706179e+01 5.633240181143085445e-01 1.814553849823242471e-01 -2.276740605299958781e-03 1.480510353532188128e-01
1.279731815835706144e+01 5.670150951655058558e-01 1.963972589755908493e-01 8.251713362293155996e-02 1.498242399916548395e-01
1.289731815835706108e+01 5.795678468383851367e-01 2.112498982419177274e-01 1.679147112536626407e-01 1.464903728745319544e-01
1.299731815835706072e+01 6.006378266011578315e-01 2.255716178434887254e-01 2.492243228461342164e-01 1.394511248478923771e-01
1.309731815835706037e+01 6.281780033456024759e-01 2.390643643805803742e-01 2.955212862634832849e-01 1.301244724316534540e-01
1.319731815835706001e+01 6.581364962874177715e-01 2.515554888638782405e-01 2.983177175146797255e-01 1.195460266756303985e-01
1.329731815835705966e+01 6.882252531963071185e-01 2.629503522655161074e-01 3.026954224854271347e-01 1.082779044212684727e-01
1.339731815835705930e+01 7.165412915053052112e-01 2.732033076780747138e-01 2.546785337023181883e-01 9.674548769928646708e-02
1.349731815835705895e+01 7.387134125808747509e-01 2.822859941319988963e-01 1.819892823148215877e-01 8.480391089937591720e-02
1.359731815835705859e+01 7.510966857958478737e-01 2.901303310467531760e-01 6.733468458828294201e-02 7.182459833807691707e-02
1.369731815835705824e+01 7.541683357854845893e-01 2.965835923366280102e-01 1.009925635960667867e-03 5.685749506582209872e-02
1.379731815835705788e+01 7.525410333454425338e-01 3.014232794025709095e-01 -2.308354489760832892e-02 3.955497381427336423e-02
1.389731815835705753e+01 7.508493474557168534e-01 3.044296586639522739e-01 -1.055593608130459514e-02 2.032545539493545161e-02
1.399731815835705717e+01 7.508715225718471942e-01 3.054561493911222003e-01 1.415335511945601220e-02 1.376093265807905308e-04
1.409731815835705682e+01 7.530670295831120020e-01 3.044645478779076653e-01 2.322995611482561729e-02 -1.983922682125014228e-02
1.419731815835705646e+01 7.542953021080661680e-01 3.015274394740923847e-01 -6.930324630691184901e-03 -3.866110637622187374e-02
1.429731815835705611e+01 7.502267913518304576e-01 2.967824253432648773e-01 -7.515180941711051277e-02 -5.600269530227736103e-02
1.439731815835705575e+01 7.400392998863432048e-01 2.903701832193975596e-01 -1.247558941915496850e-01 -7.203628466417962006e-02
1.449731815835705540e+01 7.258943883958541843e-01 2.824170692227516710e-01 -1.558794570500320331e-01 -8.680610684048364889e-02
1.459731815835705504e+01 7.087975796986810684e-01 2.730561444839874619e-01 -1.873102650067052788e-01 -1.001637507417099254e-01
1.469731815835705468e+01 6.885502369714440185e-01 2.624352199532263841e-01 -2.162847363941519940e-01 -1.119945547207429198e-01
1.479731815835705433e+01 6.657110520715506796e-01 2.507107979855560664e-01 -2.395843582205626210e-01 -1.222183531316692190e-01
1.489731815835705397e+01 6.412079137379140814e-01 2.380485065712622805e-01 -2.430251154148749537e-01 -1.307268753416993279e-01
1.499731815835705362e+01 6.191078816093107395e-01 2.246344124456458036e-01 -1.945715275509510844e-01 -1.371400647430160158e-01
1.509731815835705326e+01 6.013719024735955099e-01 2.107194771827444468e-01 -1.642061076156159649e-01 -1.406016712891047515e-01
1.519731815835705291e+01 5.871245297243827821e-01 1.966339538818650812e-01 -1.147582763087656027e-01 -1.404584316410761313e-01
1.529731815835705255e+01 5.784903512308919860e-01 1.827706548627520688e-01 -6.037742815437682070e-02 -1.360350564121372563e-01
1.539731815835705220e+01 5.745707034305426175e-01 1.695891713255674726e-01 -2.111922517002771948e-02 -1.267581882491374823e-01
