time[s] x1[m] x2[m] x1_dot[m/s] x2_dot[m/s]
0.000000000000000000e+00 0.000000000000000000e+00 0.000000000000000000e+00 0.000000000000000000e+00 0.000000000000000000e+00
9.999999999999999124e-05 4.819936540329727528e-08 5.792667260728281135e-15 9.639680620399693504e-04 1.743611778560885138e-10
1.100000000000000066e-03 5.829788857961835759e-06 8.483369523546454800e-12 1.059727616581564343e-02 2.390959702886102072e-08
1.110000000000000049e-02 5.911874818162926636e-04 1.664041662264898858e-08 1.062709271890224794e-01 5.287701354029491823e-06
6.548710729330112224e-02 2.005348520021419181e-02 1.209994747970365138e-05 6.018572080635322674e-01 7.112352656311513553e-04
1.654871072933011278e-01 1.204232612301305017e-01 4.381413242926725953e-04 1.371863052805229355e+00 1.026200550651817749e-02
2.654871072933011611e-01 2.858898689608754262e-01 2.712971852980867148e-03 1.882721925310484323e+00 3.911757177590832746e-02
3.654871072933011389e-01 4.864164059204089674e-01 9.109584259061481032e-03 2.087986727562640255e+00 9.322600626315671879e-02
4.654871072933011167e-01 6.968761026326173447e-01 2.222823211921343828e-02 2.084703256061450904e+00 1.733046152503244230e-01
5.654871072933010945e-01 8.945500632527383367e-01 4.452062162663414369e-02 1.819092654538351450e+00 2.757261887988734506e-01
6.654871072933010723e-01 1.052174198645119629e+00 7.784689749920509216e-02 1.311979239799386576e+00 3.922087568166101601e-01
7.654871072933010501e-01 1.156821393613315152e+00 1.230319850799635462e-01 7.851101426058932908e-01 5.107745354128619963e-01
8.654871072933010279e-01 1.209800207248611592e+00 1.796505316697787902e-01 2.859621826971021630e-01 6.188231401111735641e-01
9.654871072933010057e-01 1.217273926794365746e+00 2.460561767211999484e-01 -1.225051325442229055e-01 7.047351847942132652e-01
1.065487107293300983e+00 1.189616432931330570e+00 3.195419862439254910e-01 -3.971078539385067274e-01 7.590861538083281124e-01
1.165487107293301072e+00 1.144599456773274015e+00 3.966144558152736033e-01 -4.698457086695930207e-01 7.758178557004100639e-01
1.265487107293301161e+00 1.103355981530098839e+00 4.733932618474836485e-01 -3.233891681044190336e-01 7.533467724431170964e-01
1.365487107293301250e+00 1.081965125393165028e+00 5.460729113619178232e-01 -1.030736017545253180e-01 6.946271967050149376e-01
1.465487107293301339e+00 1.083954266263180921e+00 6.112986293983284636e-01 1.450430585590848642e-01 6.053677256911882409e-01
1.565487107293301428e+00 1.109808793851177144e+00 6.663710231032321518e-01 3.663930435859044099e-01 4.928613499756880900e-01
1.665487107293301516e+00 1.156272106326789784e+00 7.093616534148992070e-01 5.540259419893376336e-01 3.650864930056531010e-01
1.765487107293301605e+00 1.218734334835022581e+00 7.391486210785720434e-01 6.881711420750142860e-01 2.301048051113160908e-01
1.865487107293301694e+00 1.292075153076976068e+00 7.553973740586092944e-01 7.657578968597571478e-01 9.553930715621025693e-02
1.965487107293301783e+00 1.368763058670935839e+00 7.584960944480201306e-01 7.483250338761402443e-01 -3.189270117497078338e-02
2.065487107293301872e+00 1.437449892935006801e+00 7.494265691583953393e-01 6.068821605195769964e-01 -1.471713075358343781e-01
2.165487107293301960e+00 1.486872065831303491e+00 7.295624984724219386e-01 3.645279745788627679e-01 -2.474980294817281101e-01
2.265487107293302049e+00 1.507671305336399037e+00 7.004502611654166433e-01 4.521599304437529110e-02 -3.321862546907090596e-01
2.365487107293302138e+00 1.495624656641861394e+00 6.636142751982085919e-01 -2.851938400673926788e-01 -4.022288033727322576e-01
2.465487107293302227e+00 1.451076451673038337e+00 6.204324972029088281e-01 -6.017561450176645010e-01 -4.594436645468840119e-01
2.565487107293302316e+00 1.377937644426926456e+00 5.720826339584428322e-01 -8.352035928590896274e-01 -5.059215479617655831e-01
2.665487107293302405e+00 1.288666237855661256e+00 5.195609074895570778e-01 -9.412265705433988661e-01 -5.429662134765408377e-01
2.765487107293302493e+00 1.190665638880343602e+00 4.638002490211060591e-01 -1.007234709413983964e+00 -5.706841091732034466e-01
2.865487107293302582e+00 1.089756418393457604e+00 4.057438822695378922e-01 -1.003284073940985621e+00 -5.887851821708615097e-01
2.965487107293302671e+00 9.917620091844958630e-01 3.463897771363610434e-01 -9.431315091663746708e-01 -5.964779042227851269e-01
3.065487107293302760e+00 9.038094668292412370e-01 2.868359046650373889e-01 -8.061875802597736618e-01 -5.925203298568056942e-01
3.165487107293302849e+00 8.309511791969850236e-01 2.283321952511391528e-01 -6.572769910975411189e-01 -5.751814706038044234e-01
3.265487107293302937e+00 7.713240157793802565e-01 1.722913802039983122e-01 -5.335977654883443666e-01 -5.431238864341634276e-01
3.365487107293303026e+00 7.241170115930072315e-01 1.202139811922617318e-01 -4.200427373297969114e-01 -4.958929175716506044e-01
3.465487107293303115e+00 6.855692214446231780e-01 7.360494831415230477e-02 -3.512210590638647489e-01 -4.339422991177214195e-01
3.565487107293303204e+00 6.540656180243287210e-01 3.386466513829754915e-02 -2.846833005191090615e-01 -3.588336723667376327e-01
3.665487107293303293e+00 6.267089339427686090e-01 2.200898515070555395e-03 -2.672878048488360747e-01 -2.728873119921547685e-01
3.765487107293303382e+00 6.018649359401050392e-01 -2.046075133288662723e-02 -2.170716547439963950e-01 -1.793709391779006179e-01
3.865487107293303470e+00 5.842611005973945559e-01 -3.352849547305556538e-02 -1.408313995947310104e-01 -8.150486118620782483e-02
3.965487107293303559e+00 5.721160253148187547e-01 -3.672030994346987820e-02 -1.072620268817903177e-01 1.757920727773593095e-02
4.065487107293303204e+00 5.626447694437934910e-01 -3.009372496012666792e-02 -7.736091479120117687e-02 1.142327484675079441e-01
4.165487107293302849e+00 5.579327515501256718e-01 -1.407468130871971160e-02 -1.601912674337707676e-02 2.048850279218471238e-01
4.265487107293302493e+00 5.585049221437744515e-01 1.058282050079088765e-02 2.497191189764685210e-02 2.865222047323859877e-01
4.365487107293302138e+00 5.637128984774726348e-01 4.283607623104709883e-02 8.605792688133201418e-02 3.563775471159738584e-01
4.465487107293301783e+00 5.766062681251298283e-01 8.139692895125064109e-02 1.699628696349510248e-01 4.124219793340901385e-01
4.565487107293301428e+00 5.961679989527419732e-01 1.248191487516726039e-01 2.175367828942483817e-01 4.534257892416865832e-01
4.665487107293301072e+00 6.222094326629851180e-01 1.715497343766156924e-01 3.194348154766197823e-01 4.785132910939283168e-01
4.765487107293300717e+00 6.606249121066714025e-01 2.200035693757100841e-01 4.400770899368405820e-01 4.880815989900086915e-01
4.865487107293300362e+00 7.093413389979658090e-01 2.686918350169393843e-01 5.377609094007106405e-01 4.834323558603909610e-01
4.965487107293300006e+00 7.684674429449810384e-01 3.162713385984781134e-01 6.375250968341593660e-01 4.662430780744908354e-01
5.065487107293299651e+00 8.348149120322906347e-01 3.615921676010833696e-01 6.854785314699246568e-01 4.385914598086488869e-01
5.165487107293299296e+00 9.058596569089630846e-01 4.037057143247216318e-01 7.327051101888309992e-01 4.024389721456285152e-01
5.265487107293298941e+00 9.794775473176300373e-01 4.418678773911494106e-01 7.304903315054745994e-01 3.599053198549167498e-01
5.365487107293298585e+00 1.050161882585146866e+00 4.755334183475578569e-01 6.706120346730729542e-01 3.127515622801522177e-01
5.465487107293298230e+00 1.111826049284020179e+00 5.043015332262137385e-01 5.621693412159323167e-01 2.620782342756748373e-01
5.565487107293297875e+00 1.162333100239537176e+00 5.278526489478443384e-01 4.417536019936420533e-01 2.085120868134711647e-01
5.665487107293297520e+00 1.199813017805747339e+00 5.459244357077128740e-01 3.127068690453216337e-01 1.525592780810217652e-01
5.765487107293297164e+00 1.225222854227651315e+00 5.583023353284949364e-01 1.923265916232069217e-01 9.474804377822185208e-02
5.865487107293296809e+00 1.238452164816912227e+00 5.648348879025653080e-01 8.063851572915427257e-02 3.576730123915331655e-02
5.965487107293296454e+00 1.243410421353049689e+00 5.654479044132725285e-01 2.352928474647657947e-02 -2.342085397017735354e-02
6.065487107293296098e+00 1.242571019751182559e+00 5.601965567500124532e-01 -4.306136483904256934e-02 -8.124469249569850338e-02
6.165487107293295743e+00 1.235632987450503872e+00 5.492953159440785438e-01 -9.354792337900291743e-02 -1.361695510821837596e-01
6.265487107293295388e+00 1.222615626930787069e+00 5.331097680129754934e-01 -1.693540881284506527e-01 -1.867054086067726215e-01
6.365487107293295033e+00 1.202828039955893269e+00 5.121379410939441712e-01 -2.298161679052271866e-01 -2.317224182310295977e-01
6.465487107293294677e+00 1.173407056352210986e+00 4.869785539668145535e-01 -3.679850035514440898e-01 -2.703979508375745078e-01
6.565487107293294322e+00 1.130269965346405447e+00 4.582624938524342828e-01 -4.911294700924428991e-01 -3.029417574699475035e-01
6.665487107293293967e+00 1.074270440417299577e+00 4.265784671010864337e-01 -6.285477869481033153e-01 -3.298596908964210872e-01
6.765487107293293612e+00 1.006714125408243676e+00 3.924529744147162713e-01 -7.101843151208225846e-01 -3.518799319141737159e-01
6.865487107293293256e+00 9.338882408189617124e-01 3.563564025115186773e-01 -7.387759578152212070e-01 -3.692659646006076768e-01
6.965487107293292901e+00 8.607818935028106466e-01 3.187649294239949804e-01 -7.135828989400707645e-01 -3.816778845745840143e-01
7.065487107293292546e+00 7.926215242204293077e-01 2.802157891242508803e-01 -6.483061799646081536e-01 -3.882287935759293762e-01
7.165487107293292190e+00 7.305468913269889120e-01 2.413529289708850611e-01 -5.924756611014179164e-01 -3.877846481767974196e-01
7.265487107293291835e+00 6.758746123662082717e-01 2.029207931591235081e-01 -4.928539308822290077e-01 -3.794675445472963649e-01
7.365487107293291480e+00 6.312781767174896475e-01 1.657555794886268197e-01 -4.073103443157450876e-01 -3.622892738475027019e-01
7.465487107293291125e+00 5.943836025936826140e-01 1.307761865637518950e-01 -3.277645201473517456e-01 -3.357258297182662554e-01
7.565487107293290769e+00 5.648915896219616206e-01 9.892334899418503413e-02 -2.657692869874583863e-01 -2.998000220713563646e-01
7.665487107293290414e+00 5.422236132341888837e-01 7.110972140214277815e-02 -1.852744914004322008e-01 -2.550653515562144591e-01
7.765487107293290059e+00 5.261836022235371058e-01 4.817676807458083632e-02 -1.396253476298171814e-01 -2.023717106951804512e-01
7.865487107293289704e+00 5.159005268409956324e-01 3.085235518738979263e-02 -6.206063591864710571e-02 -1.431539973335401728e-01
7.965487107293289348e+00 5.118265278452079903e-01 1.971361417983186898e-02 -3.027159344093549587e-02 -7.894375980591768205e-02
8.065487107293289881e+00 5.089646910889008558e-01 1.515652797029262353e-02 -2.834668030280567894e-02 -1.196112102790518328e-02
8.165487107293289526e+00 5.074741331103347353e-01 1.732242435755013479e-02 1.222188035673750853e-02 5.507203537140736849e-02
8.265487107293289171e+00 5.117980580454866146e-01 2.609725680267068956e-02 6.254619277021639112e-02 1.199013684676747404e-01
8.365487107293288815e+00 5.187592973612168423e-01 4.116045198709823716e-02 7.877272882676468468e-02 1.804529952636352297e-01
8.465487107293288460e+00 5.273405636936393526e-01 6.196916120602960487e-02 9.010404127147941811e-02 2.344491133784859793e-01
8.565487107293288105e+00 5.375138595531628871e-01 8.776216722086185862e-02 1.206280368338306097e-01 2.798255995516510941e-01
8.665487107293287750e+00 5.527400875699828298e-01 1.175982155452329481e-01 1.904874078660965253e-01 3.151521483598400120e-01
8.765487107293287394e+00 5.763190881236783802e-01 1.504411028021840346e-01 2.795568038624483553e-01 3.399584889547463962e-01
8.865487107293287039e+00 6.084409381572370989e-01 1.852462338736584613e-01 3.639088472092788518e-01 3.544663303112544073e-01
8.965487107293286684e+00 6.490861032640915518e-01 2.210116216828089675e-01 4.487537660611477519e-01 3.593051741648611297e-01
9.065487107293286329e+00 6.977952025805197467e-01 2.568189714526365464e-01 5.157952383463553225e-01 3.555010845837219269e-01
9.165487107293285973e+00 7.492996446127581089e-01 2.918588059633077103e-01 5.026357523658714355e-01 3.440741368248879106e-01
9.265487107293285618e+00 7.967355877924215957e-01 3.253912671508129573e-01 4.393750200130773775e-01 3.253592336155914921e-01
9.365487107293285263e+00 8.370423729345655151e-01 3.566849064848849338e-01 3.715730668948093451e-01 2.992809518296562499e-01
9.465487107293284907e+00 8.711491853242858685e-01 3.850063196528937803e-01 3.082320393158349270e-01 2.659793753196224575e-01
9.565487107293284552e+00 8.995098849714582290e-01 4.096569305515670445e-01 2.660136106782161614e-01 2.259843412818015318e-01
9.665487107293284197e+00 9.248405671109708459e-01 4.300154653269189775e-01 2.428410167952218812e-01 1.803719327378932313e-01
9.765487107293283842e+00 9.487094098915860307e-01 4.455974085638144122e-01 2.319045649243793028e-01 1.307569902354019098e-01
9.865487107293283486e+00 9.704174926640879439e-01 4.560960991802395226e-01 2.063440183122154659e-01 7.901105616464362824e-02
9.965487107293283131e+00 9.912341117424700032e-01 4.613916161176893627e-01 2.063324777657684905e-01 2.704291374368292949e-02
1.006548710729328278e+01 1.009384398274479455e+00 4.615664218483510606e-01 1.486766069539234847e-01 -2.310896751251160369e-02
1.016548710729328242e+01 1.021010503866073504e+00 4.568758341316562221e-01 8.511851962992222909e-02 -7.008364273013702184e-02
1.026548710729328207e+01 1.025102130739773854e+00 4.476896747671107457e-01 -1.364808185094040782e-02 -1.128846966211488750e-01
1.036548710729328171e+01 1.017521081007965345e+00 4.344512234931392491e-01 -1.374675383105028459e-01 -1.511324944905842460e-01
1.046548710729328135e+01 9.969813082434165752e-01 4.176091551917245903e-01 -2.747639434726291130e-01 -1.850166215159194383e-01
1.056548710729328100e+01 9.643068668582889247e-01 3.975771927119053362e-01 -3.676323886094534643e-01 -2.150015243469568516e-01
1.066548710729328064e+01 9.245319752073574149e-01 3.747350973367777893e-01 -4.197354871086497186e-01 -2.411895591725655152e-01
1.076548710729328029e+01 8.828519988762006943e-01 3.494791838271398277e-01 -4.088490456080640101e-01 -2.631504765652029620e-01
1.086548710729327993e+01 8.422631376022317040e-01 3.222785118498150414e-01 -4.032807162028058667e-01 -2.799212994781171693e-01
1.096548710729327958e+01 8.021081467428183842e-01 2.936949517344356608e-01 -4.023461962819360749e-01 -2.907005350808639643e-01
1.106548710729327922e+01 7.631381011992425245e-01 2.643548764872077905e-01 -3.649672650842700206e-01 -2.949744712098527066e-01
1.116548710729327887e+01 7.281947193719547906e-01 2.349388478807520053e-01 -3.493894672271756763e-01 -2.921101546885082056e-01
1.126548710729327851e+01 6.933197529843775353e-01 2.061750850624831655e-01 -3.356152244696956055e-01 -2.819852318434107885e-01
1.136548710729327816e+01 6.614160952341430200e-01 1.787766490016306220e-01 -3.095888440774910988e-01 -2.648218933672211173e-01
1.146548710729327780e+01 6.311238924245309301e-01 1.534330042190002463e-01 -2.925525586264686173e-01 -2.410014366693388477e-01
1.156548710729327745e+01 6.041526011940949736e-01 1.307742960991010173e-01 -2.360606049009757734e-01 -2.112330497975949684e-01
1.166548710729327709e+01 5.854812559073211409e-01 1.113705476361459418e-01 -1.400587134292400338e-01 -1.759261368188750618e-01
1.176548710729327674e+01 5.746040446297083770e-01 9.576687406663082769e-02 -8.163556564187893216e-02 -1.353144750096722526e-01
1.186548710729327638e+01 5.695207162806033008e-01 8.445768251987033348e-02 -1.686077980120810615e-02 -9.020237640819243896e-02
1.196548710729327603e+01 5.702571985154075707e-01 7.784301966944047468e-02 1.850614035428354426e-02 -4.161191904284408660e-02
1.206548710729327567e+01 5.716154048536560284e-01 7.619920211060532411e-02 9.504534111175941963e-03 8.870848518163325369e-03
1.216548710729327532e+01 5.717261891885004887e-01 7.960650311349516672e-02 -1.477592079257025390e-02 5.902636118481000005e-02
1.226548710729327496e+01 5.686575160067072199e-01 8.791151392072608928e-02 -3.939069316525841552e-02 1.063978245287411639e-01
1.236548710729327460e+01 5.638200840438668537e-01 1.007149191904249258e-01 -6.306532567255788979e-02 1.486401734664806740e-01
1.246548710729327425e+01 5.568998791303791940e-01 1.173983652702519226e-01 -6.119822529080161388e-02 1.836711681145516695e-01
1.256548710729327389e+01 5.534788481285638495e-01 1.371615948644051841e-01 -8.127077263344675839e-03 2.101130872909250935e-01
1.266548710729327354e+01 5.541549386973378954e-01 1.591197117080249135e-01 2.127548264675747577e-02 2.275139715462658196e-01
1.276548710729327318e+01 5.601517715878345793e-01 1.823563614783302866e-01 1.143911889732256992e-01 2.357231075241241480e-01
1.286548710729327283e+01 5.778285364449363692e-01 2.059894696251060031e-01 2.360383613849196816e-01 2.357078742493975698e-01
1.296548710729327247e+01 6.074435965275021276e-01 2.292818453329041051e-01 3.556158340583159827e-01 2.292212323769711180e-01
1.306548710729327212e+01 6.476443639666333851e-01 2.516833659938227941e-01 4.405227419629478836e-01 2.182110654457700694e-01
1.316548710729327176e+01 6.936759981785888263e-01 2.728295227275689960e-01 4.685029884641281894e-01 2.043423062977142712e-01
1.326548710729327141e+01 7.406177711148089760e-01 2.924906180057724181e-01 4.738363689145038138e-01 1.886304536189138126e-01
1.336548710729327105e+01 7.869125127352447624e-01 3.105184513289463988e-01 4.347084323331946165e-01 1.717815721100706960e-01
1.346548710729327070e+01 8.259422520175774274e-01 3.268138393506340167e-01 3.430743272652119757e-01 1.539192332858492496e-01
1.356548710729327034e+01 8.531426193351648868e-01 3.412487924330235844e-01 1.901711798462384917e-01 1.344184780814517421e-01
1.366548710729326999e+01 8.651521605240863888e-01 3.536003691522403014e-01 6.268229166679681330e-02 1.120256313779233043e-01
1.376548710729326963e+01 8.671344777062376386e-01 3.635273597795966039e-01 -1.374626291937998401e-02 8.586111827069267677e-02
1.386548710729326928e+01 8.648243975304316100e-01 3.706479372557940910e-01 -2.673217486284968150e-02 5.599704575062779133e-02
1.396548710729326892e+01 8.622623449047708277e-01 3.746366955656049158e-01 -1.875997596621176502e-02 2.344117526681274016e-02
1.406548710729326856e+01 8.615093775508239071e-01 3.752963645657588221e-01 -1.736978904546382374e-03 -1.030156683436347920e-02
1.416548710729326821e+01 8.606270242130701353e-01 3.725906923405403748e-01 -2.279751675261761784e-02 -4.363407786955530998e-02
1.426548710729326785e+01 8.549809180521094065e-01 3.666193844474119889e-01 -9.721647609827671621e-02 -7.550200150658067932e-02
1.436548710729326750e+01 8.414891641421221591e-01 3.575504842971207187e-01 -1.671092841825559394e-01 -1.055611919033371537e-01
1.446548710729326714e+01 8.223773761562396256e-01 3.455763639241490326e-01 -2.116568604594857295e-01 -1.335355933104794834e-01
1.456548710729326679e+01 7.994073638163232687e-01 3.309301872199791883e-01 -2.495364991666572108e-01 -1.589057543801697947e-01
1.466548710729326643e+01 7.722898778617299786e-01 3.138989041830953508e-01 -2.916501018890205188e-01 -1.811718848600517573e-01
1.476548710729326608e+01 7.412764537322598102e-01 2.948107037361559213e-01 -3.280580465690510206e-01 -1.999933769215852808e-01
1.486548710729326572e+01 7.069786112013061175e-01 2.740239488871551998e-01 -3.533159956903559884e-01 -2.151036612140337922e-01
1.496548710729326537e+01 6.727894629315755992e-01 2.519244870462233887e-01 -3.179841048098709377e-01 -2.261523629867961682e-01
1.506548710729326501e+01 6.435726417694264123e-01 2.289594334775667539e-01 -2.743713049716023922e-01 -2.322280662089238890e-01
1.516548710729326466e+01 6.178736648657523478e-01 2.056737540494974203e-01 -2.307991769340432819e-01 -2.324642900117817601e-01
1.526548710729326430e+01 5.984174036288344434e-01 1.826837737148061802e-01 -1.596592539002905653e-01 -2.261801620493891496e-01
1.536548710729326395e+01 5.854959979623066690e-01 1.606789763086052814e-01 -1.013606361818107232e-01 -2.126746445306789690e-01
