time[s] x1[m] x2[m] x1_dot[m/s] x2_dot[m/s]
0.000000000000000000e+00 0.000000000000000000e+00 0.000000000000000000e+00 0.000000000000000000e+00 0.000000000000000000e+00
9.999999999999999124e-05 2.916673181016958634e-08 3.505271452154280126e-15 5.833320013181765703e-04 1.055106253953919045e-10
1.100000000000000066e-03 3.528851690230202048e-06 5.134638331590133261e-12 6.415767086424856158e-03 1.447264974776652134e-08
1.110000000000000049e-02 3.589565320429199849e-04 1.009235839987311586e-08 6.463551796769337332e-02 3.208936588935552600e-06
6.357772022720024896e-02 1.167152684893160361e-02 6.612984807205850699e-06 3.644983311700080719e-01 4.012974868101446620e-04
1.635777202272002406e-01 7.480154780237298351e-02 2.610722789416282559e-04 8.839284526608349735e-01 6.231799275106780778e-03
2.635777202272002739e-01 1.840884300744463076e-01 1.672711418991164800e-03 1.269163076297680881e+00 2.457427797480850329e-02
3.635777202272002517e-01 3.219016224192691733e-01 5.750924741362643290e-03 1.461304353620359153e+00 6.004744233087397354e-02
4.635777202272002295e-01 4.719982070332274238e-01 1.429939653644860670e-02 1.514779356680910238e+00 1.139483756600189746e-01
5.635777202272002073e-01 6.181209299678031011e-01 2.910308304411202140e-02 1.367465020512354190e+00 1.846017434280262659e-01
6.635777202272001851e-01 7.380800737398541811e-01 5.160753843251231210e-02 1.009002902245020428e+00 2.667668348523989374e-01
7.635777202272001629e-01 8.184934510977358579e-01 8.255852509578627541e-02 5.962717819049422330e-01 3.519694639525625668e-01
8.635777202272001407e-01 8.566269201419174362e-01 1.217842300984670473e-01 1.696035226430168130e-01 4.306533340215513705e-01
9.635777202272001185e-01 8.540931244713018122e-01 1.681580584548906521e-01 -2.119567266555927310e-01 4.934486976096461586e-01
1.063577720227200096e+00 8.172390918413903194e-01 2.196726859942321197e-01 -4.997158281283892167e-01 5.322822254738415193e-01
1.163577720227200185e+00 7.597048174001307386e-01 2.736245488654772129e-01 -6.218044139161331696e-01 5.415379975576606331e-01
1.263577720227200274e+00 6.997815038841788127e-01 3.269231617147945190e-01 -5.449909230031597662e-01 5.192235167317846845e-01
1.363577720227200363e+00 6.540703232596410954e-01 3.764811464094943161e-01 -3.596529095595171754e-01 4.673541633453806021e-01
1.463577720227200452e+00 6.302815617899374390e-01 4.195701564556734153e-01 -1.073395499971108724e-01 3.908405131305117131e-01
1.563577720227200540e+00 6.328839970803543657e-01 4.540546201521620251e-01 1.589709125192118044e-01 2.965172123260320092e-01
1.663577720227200629e+00 6.618045816021158601e-01 4.785407469743724329e-01 4.135019229062165680e-01 1.922195233274155424e-01
1.763577720227200718e+00 7.139273501187887172e-01 4.924340950968852382e-01 6.206921042990074522e-01 8.596877614597542294e-02
1.863577720227200807e+00 7.837308569463581343e-01 4.959185866548842525e-01 7.603072800760906080e-01 -1.479848938405381453e-02
1.963577720227200896e+00 8.623715212874791813e-01 4.898652271994728413e-01 7.906319620265465087e-01 -1.039090596877082634e-01
2.063577720227200984e+00 9.370733521199308136e-01 4.756645210139958113e-01 6.811165339143897546e-01 -1.772779469218336845e-01
2.163577720227201073e+00 9.945116056939483640e-01 4.549860632659646353e-01 4.472445176816860490e-01 -2.334369266103571428e-01
2.263577720227201162e+00 1.023092656171906034e+00 4.295178854722317974e-01 1.134338322062995452e-01 -2.734453546531306900e-01
2.363577720227201251e+00 1.016027189215178206e+00 4.007331678045514822e-01 -2.570032307827929685e-01 -3.004039992651640900e-01
2.463577720227201340e+00 9.718164757982828972e-01 3.697326108226048902e-01 -6.233770080468925556e-01 -3.185081108290442331e-01
2.563577720227201429e+00 8.937649181755766836e-01 3.371773366747545797e-01 -9.147878441955754614e-01 -3.322095199946734079e-01
2.663577720227201517e+00 7.936011062764180002e-01 3.033184268778590931e-01 -1.072621365553132478e+00 -3.450138067533659592e-01
2.763577720227201606e+00 6.819148884688847057e-01 2.681434649001747106e-01 -1.142799038413738977e+00 -3.587119802407776614e-01
2.863577720227201695e+00 5.689538206758472105e-01 2.315327869973572428e-01 -1.100429318605809392e+00 -3.736495678621152283e-01
2.963577720227201784e+00 4.649753953120500105e-01 1.934122869694175351e-01 -9.611741933019744000e-01 -3.885793677223138287e-01
3.063577720227201873e+00 3.800779994492258229e-01 1.539053003527510455e-01 -7.238626166429669162e-01 -4.008128834370223714e-01
3.163577720227201961e+00 3.213765476877709082e-01 1.134688983494410858e-01 -4.523545557182419019e-01 -4.064634184860346222e-01
3.263577720227202050e+00 2.887910391195994686e-01 7.296876602001035883e-02 -2.010465082608247078e-01 -4.014552220540412719e-01
3.363577720227202139e+00 2.802094188387266316e-01 3.364757115492505307e-02 1.672214499730076409e-02 -3.823890750419486340e-01
3.463577720227202228e+00 2.892907504008154218e-01 -2.964191440704158631e-03 1.550122199452492466e-01 -3.470401617013209039e-01
3.563577720227202317e+00 3.093453653251272972e-01 -3.519918905984244922e-02 2.319405311413464399e-01 -2.949036144133614923e-01
3.663577720227202406e+00 3.322760779769870498e-01 -6.142301706696133567e-02 2.128692625847150299e-01 -2.271809312368881228e-01
3.763577720227202494e+00 3.508717549568852179e-01 -8.021766332248969622e-02 1.598713761282050949e-01 -1.469586632415460503e-01
3.863577720227202583e+00 3.637846699472556677e-01 -9.053569329679686528e-02 9.041851658878706510e-02 -5.838454761312945884e-02
3.963577720227202672e+00 3.673443988471760124e-01 -9.177543647432233331e-02 -2.385421111216928791e-02 3.373525106404344498e-02
4.063577720227202761e+00 3.590423910558658283e-01 -8.385344083622177369e-02 -1.362953439837541469e-01 1.239144177313938472e-01
4.163577720227202406e+00 3.418973521363018464e-01 -6.723649608663256894e-02 -1.996441891025403925e-01 2.068109207544829853e-01
4.263577720227202050e+00 3.198840917928743588e-01 -4.288253355761358770e-02 -2.347229242941272220e-01 2.779959984729750699e-01
4.363577720227201695e+00 2.971537827555823519e-01 -1.214337379110498605e-02 -2.062909235923497675e-01 3.340521328713503824e-01
4.463577720227201340e+00 2.810170716487528919e-01 2.335847060121567370e-02 -1.092109476255853640e-01 3.730830889992947652e-01
4.563577720227200984e+00 2.756943082612750007e-01 6.189537009935283662e-02 5.827810031925104162e-03 3.948076585678148565e-01
4.663577720227200629e+00 2.845727314762006022e-01 1.017699784584285838e-01 1.871022485652178990e-01 4.000904110283045045e-01
4.763577720227200274e+00 3.140935573532919189e-01 1.414439262606010939e-01 3.979591003901722379e-01 3.913198981458073100e-01
4.863577720227199919e+00 3.632917771907230864e-01 1.796775466206855520e-01 5.856716577382470312e-01 3.718609057537054507e-01
4.963577720227199563e+00 4.306660284946758344e-01 2.155783996913992195e-01 7.516713783026796047e-01 3.452723763935472423e-01
5.063577720227199208e+00 5.108708984170390321e-01 2.486095943921096951e-01 8.418115932817155089e-01 3.149772305779504067e-01
5.163577720227198853e+00 5.976392708380781071e-01 2.785382496778379124e-01 8.838202495443117090e-01 2.835962470828991000e-01
5.263577720227198498e+00 6.847126511042750385e-01 3.053555879016233709e-01 8.432110227439149064e-01 2.529740758742593520e-01
5.363577720227198142e+00 7.635708337822836311e-01 3.291825803846182841e-01 7.186023141451163276e-01 2.237963955600836552e-01
5.463577720227197787e+00 8.260344322201861322e-01 3.501443112770776800e-01 5.259205291511710456e-01 1.954667577635667841e-01
5.563577720227197432e+00 8.680703691384924481e-01 3.682532160697365997e-01 3.093746259577264679e-01 1.664462161487474945e-01
5.663577720227197076e+00 8.877074507635773770e-01 3.833471950296861164e-01 8.883152267531341240e-02 1.348358407823683491e-01
5.763577720227196721e+00 8.868421889402439140e-01 3.950734602906122994e-01 -1.034503743187070446e-01 9.883748741659259540e-02
5.863577720227196366e+00 8.682847720716003748e-01 4.029262411512075093e-01 -2.550807112962186762e-01 5.721221321728144071e-02
5.963577720227196011e+00 8.388231828201965223e-01 4.063154035507876571e-01 -3.222516168739629205e-01 9.622936015102043217e-03
6.063577720227195655e+00 8.050221908995693898e-01 4.046843755794365394e-01 -3.485745173977498057e-01 -4.293639297831951945e-02
6.163577720227195300e+00 7.710207574709094791e-01 3.976243994921653258e-01 -3.237432983501504768e-01 -9.857525661767124747e-02
6.263577720227194945e+00 7.403387307585154176e-01 3.849547299016112811e-01 -2.888832878563129536e-01 -1.546507642039056107e-01
6.363577720227194590e+00 7.143672051541726242e-01 3.667767549463089027e-01 -2.318012724159725368e-01 -2.082380923773556602e-01
6.463577720227194234e+00 6.915159481920809537e-01 3.434890260809450035e-01 -2.350622451520435474e-01 -2.564116054558340796e-01
6.563577720227193879e+00 6.672372718375788603e-01 3.157439690354929551e-01 -2.524420408923570558e-01 -2.971101496964094757e-01
6.663577720227193524e+00 6.393295152209024224e-01 2.843631980984319685e-01 -3.119370660981081178e-01 -3.289600616680379841e-01
6.763577720227193169e+00 6.050342414898782772e-01 2.502651786153824442e-01 -3.714001722237744718e-01 -3.514229586171709885e-01
6.863577720227192813e+00 5.651063268766047809e-01 2.143941377225755118e-01 -4.268553462660220621e-01 -3.644328578096970861e-01
6.963577720227192458e+00 5.201049233239318781e-01 1.776856271702223211e-01 -4.694900930776261805e-01 -3.682384746391477170e-01
7.063577720227192103e+00 4.718474182765693969e-01 1.410382370634453708e-01 -4.952893486945508794e-01 -3.632938282599257329e-01
7.163577720227191747e+00 4.206973485270813495e-01 1.052979715699044472e-01 -5.264549163686484956e-01 -3.502322542969644736e-01
7.263577720227191392e+00 3.681226528527790642e-01 7.123089976482389896e-02 -5.161428600766668762e-01 -3.299843533921413830e-01
7.363577720227191037e+00 3.178113094939313266e-01 3.951574424627621318e-02 -4.916131119755622336e-01 -3.033022430814321102e-01
7.463577720227190682e+00 2.706381983312899919e-01 1.075966698531147930e-02 -4.449978726253521755e-01 -2.709387864437409754e-01
7.563577720227190326e+00 2.292166191302977551e-01 -1.450625708565106767e-02 -3.816835455019256806e-01 -2.336042536810717662e-01
7.663577720227189971e+00 1.958226674005870693e-01 -3.581628799187937945e-02 -2.802155169208676577e-01 -1.919065739111686930e-01
7.763577720227189616e+00 1.727186133023524695e-01 -5.275414333213536422e-02 -1.826823305761649807e-01 -1.462187378361860246e-01
7.863577720227189261e+00 1.607210996653022361e-01 -6.494208222889971682e-02 -5.285356375912658722e-02 -9.697588240456909980e-02
7.963577720227188905e+00 1.608976729402681050e-01 -7.204040589588098231e-02 4.783264992511483682e-02 -4.448939522884200193e-02
8.063577720227188550e+00 1.692958093164436684e-01 -7.375653281217381396e-02 1.165479963044334238e-01 1.048320536861439140e-02
8.163577720227188195e+00 1.844594308651812675e-01 -6.990397483894857100e-02 1.929551766927563583e-01 6.665200704501433870e-02
8.263577720227187839e+00 2.075739501995230718e-01 -6.042867282102538234e-02 2.577621281033729006e-01 1.227387819279763953e-01
8.363577720227187484e+00 2.343420741248650740e-01 -4.540806279840747806e-02 2.750953644232732587e-01 1.772492733984036006e-01
8.463577720227187129e+00 2.617416184848042615e-01 -2.509858975478772639e-02 2.675624511714765341e-01 2.281589373000316445e-01
8.563577720227186774e+00 2.877570467874275284e-01 2.922816767867916776e-05 2.556033251958107488e-01 2.732411049440182649e-01
8.663577720227186418e+00 3.134654378449382439e-01 2.928682932389115728e-02 2.625567361595010918e-01 3.104586258155452860e-01
8.763577720227186063e+00 3.408202028607653089e-01 6.180980994971176784e-02 2.843587316313699875e-01 3.383625357367452402e-01
8.863577720227185708e+00 3.704391667513383668e-01 9.661956344559091692e-02 3.105151329025248041e-01 3.560891967375794942e-01
8.963577720227185353e+00 4.033491432946496036e-01 1.326764228382399935e-01 3.499308076521066568e-01 3.632999355255957519e-01
9.063577720227184997e+00 4.406867755503316997e-01 1.689378569032365385e-01 3.927720678068798987e-01 3.602775970321961951e-01
9.163577720227184642e+00 4.802412903429394420e-01 2.044137355667556832e-01 3.914909831317957001e-01 3.476983455878842610e-01
9.263577720227184287e+00 5.180899962501944733e-01 2.381771122400568597e-01 3.614321462457210643e-01 3.261069631135650182e-01
9.363577720227183931e+00 5.524666452723099308e-01 2.693513515331140140e-01 3.295484086462334705e-01 2.960138100300279684e-01
9.463577720227183576e+00 5.840568671373881360e-01 2.971236414819423688e-01 2.999673361422001694e-01 2.582448417156179010e-01
9.563577720227183221e+00 6.128293756501752565e-01 3.207835653237712248e-01 2.794500579151756314e-01 2.139883074528773077e-01
9.663577720227182866e+00 6.400740409090349692e-01 3.397570893369854517e-01 2.655493920775299777e-01 1.648137305597705271e-01
9.763577720227182510e+00 6.661088780316146707e-01 3.536450513732541379e-01 2.520056012892439301e-01 1.126080899793638623e-01
9.863577720227182155e+00 6.895512079580352616e-01 3.622432194997021737e-01 2.176811901111697645e-01 5.932639422914699756e-02
9.963577720227181800e+00 7.102484592724357393e-01 3.655347684974210032e-01 1.927926557108068373e-01 6.785263931124656256e-03
1.006357772022718144e+01 7.262341713266814436e-01 3.636841431742178776e-01 1.195983652427373839e-01 -4.327052406795021955e-02
1.016357772022718109e+01 7.339173239911392921e-01 3.570005266744192274e-01 3.420282940980666486e-02 -8.973846437693190625e-02
1.026357772022718073e+01 7.320734760607773284e-01 3.458795030859266872e-01 -7.887309834242896278e-02 -1.319360866717152747e-01
1.036357772022718038e+01 7.175271322377145822e-01 3.307609059585533418e-01 -2.115460408485732580e-01 -1.697203767561412946e-01
1.046357772022718002e+01 6.894372821713133925e-01 3.120719876900493461e-01 -3.507065956462519507e-01 -2.034187055307275505e-01
1.056357772022717967e+01 6.487934909766029934e-01 2.901953494903056763e-01 -4.525291684464811670e-01 -2.335556478895136900e-01
1.066357772022717931e+01 6.001379987864106091e-01 2.654723126871569860e-01 -5.126558346209023620e-01 -2.603368465064752613e-01
1.076357772022717896e+01 5.485727834664423375e-01 2.382496794410298713e-01 -5.116288423038705124e-01 -2.834389400458645625e-01
1.086357772022717860e+01 4.980839929809968702e-01 2.089376757135585905e-01 -4.957972504295412031e-01 -3.019496412855096623e-01
1.096357772022717825e+01 4.498471843360001277e-01 1.780468080804426256e-01 -4.687538790250496690e-01 -3.148499405828066866e-01
1.106357772022717789e+01 4.055253284700119920e-01 1.461863754419491790e-01 -4.077950983372924942e-01 -3.211809662427018153e-01
1.116357772022717754e+01 3.679461403166313094e-01 1.140664941332467652e-01 -3.543279072863663171e-01 -3.198527234350754256e-01
1.126357772022717718e+01 3.345205191892197116e-01 8.249509693410048139e-02 -3.063435948215323390e-01 -3.101583054392529348e-01
1.136357772022717683e+01 3.067955571608997900e-01 5.232362081631120043e-02 -2.543423832144735552e-01 -2.918119882427884226e-01
1.146357772022717647e+01 2.830978260466621710e-01 2.441963205974739815e-02 -2.189294451501568040e-01 -2.648767019343025719e-01
1.156357772022717612e+01 2.634970610432167959e-01 -3.852825030226277037e-04 -1.672664484131535512e-01 -2.299522379119134097e-01
1.166357772022717576e+01 2.505364932696261815e-01 -2.132814732816527489e-02 -9.438963174582000459e-02 -1.877457200621029942e-01
1.176357772022717540e+01 2.433789413042873329e-01 -3.771825743607346015e-02 -5.269219172991834038e-02 -1.390811048370949043e-01
1.186357772022717505e+01 2.401123885350188725e-01 -4.897590445181291413e-02 -1.054870444865366880e-02 -8.536757527500406229e-02
1.196357772022717469e+01 2.406526447700919058e-01 -5.467930436145666123e-02 1.244629322920597775e-02 -2.829457076264405013e-02
1.206357772022717434e+01 2.414618590075052473e-01 -5.459265123459636215e-02 4.499868455934981359e-03 3.002594589648969331e-02
1.216357772022717398e+01 2.413986290309103333e-01 -4.871711308013200459e-02 -1.028302708138055174e-02 8.705552373334528304e-02
1.226357772022717363e+01 2.395128520062944633e-01 -3.731185399907302469e-02 -2.139628049063745444e-02 1.401834703277868854e-01
1.236357772022717327e+01 2.373950617784762740e-01 -2.089026483316080290e-02 -2.372433710082027039e-02 1.870278515763068028e-01
1.246357772022717292e+01 2.355367122156176996e-01 -1.824840542199446247e-04 -2.482762178332140190e-03 2.256100420204630030e-01
1.256357772022717256e+01 2.385516652173745034e-01 2.391328985150254632e-02 6.388348316039560437e-02 2.546746442727351178e-01
1.266357772022717221e+01 2.477524675341031546e-01 5.042384014715637491e-02 1.201557026601652312e-01 2.738871173230623679e-01
1.276357772022717185e+01 2.642710669327600903e-01 7.836471414649348599e-02 2.215983874312767443e-01 2.833586348621407458e-01
1.286357772022717150e+01 2.927134876060403790e-01 1.068053112854099040e-01 3.448119405713901964e-01 2.841429083718270410e-01
1.296357772022717114e+01 3.331374354378382474e-01 1.349613496685130865e-01 4.622981986822130018e-01 2.779778694068368861e-01
1.306357772022717079e+01 3.839667185541421057e-01 1.622334883032052755e-01 5.466737828306088565e-01 2.667802640467569208e-01
1.316357772022717043e+01 4.406750653514074911e-01 1.882058228561413749e-01 5.763883080901620604e-01 2.522144747794989317e-01
1.326357772022717008e+01 4.980531785423942259e-01 2.125995383837390451e-01 5.705730304400805641e-01 2.353302657731629055e-01
1.336357772022716972e+01 5.531900762064255739e-01 2.352155201629149428e-01 5.169205137236387859e-01 2.167336256548478557e-01
1.346357772022716937e+01 5.996559394412210864e-01 2.558893586502904993e-01 4.079202456160737622e-01 1.964074456938913193e-01
1.356357772022716901e+01 6.326814304441334968e-01 2.744152394198899336e-01 2.427122182443377241e-01 1.736006669396725210e-01
1.366357772022716865e+01 6.486506574562825866e-01 2.904818966200496400e-01 8.499167386769251875e-02 1.469792103744673173e-01
1.376357772022716830e+01 6.507681786490094877e-01 3.036456608931662471e-01 -3.527366289718510128e-02 1.154168924164495069e-01
1.386357772022716794e+01 6.436823012972964220e-01 3.133880290866126184e-01 -9.950678516346402047e-02 7.857459426712296024e-02
1.396357772022716759e+01 6.318123278851019986e-01 3.192038349186068213e-01 -1.305801554346243121e-01 3.704984707896133433e-02
1.406357772022716723e+01 6.186152094558969861e-01 3.206855923312785794e-01 -1.335952402580302123e-01 -7.827721936068947339e-03
1.416357772022716688e+01 6.048035227933278302e-01 3.175867199437711341e-01 -1.447835198010401503e-01 -5.425444077811249211e-02
1.426357772022716652e+01 5.886883716647963727e-01 3.098423294359349822e-01 -1.813677391216574897e-01 -1.004666712568889481e-01
1.436357772022716617e+01 5.688544550977092662e-01 2.975492598629478902e-01 -2.111710036101727694e-01 -1.449994896617985418e-01
1.446357772022716581e+01 5.470124147568574680e-01 2.809468013417967813e-01 -2.237029978177925149e-01 -1.863978867050642696e-01
1.456357772022716546e+01 5.241416284737263620e-01 2.604258538227213204e-01 -2.360866840340165029e-01 -2.231174829266372173e-01
1.466357772022716510e+01 4.993578100029005817e-01 2.365244267840882486e-01 -2.606042568239387847e-01 -2.538179515541767461e-01
1.476357772022716475e+01 4.717866359429436218e-01 2.098945260773218413e-01 -2.923418014171720869e-01 -2.775637200576693830e-01
1.486357772022716439e+01 4.407178056939977662e-01 1.812616183289446348e-01 -3.277287440054506007e-01 -2.938240314700018008e-01
1.496357772022716404e+01 4.074388082134082767e-01 1.513863287071863795e-01 -3.298877798215196222e-01 -3.023792828481458028e-01
1.506357772022716368e+01 3.748952983989608523e-01 1.210525607152203448e-01 -3.263813726369331203e-01 -3.029406446898574856e-01
1.516357772022716333e+01 3.421448320859410419e-01 9.106677467010590443e-02 -3.219195721618979267e-01 -2.954551471525206918e-01
1.526357772022716297e+01 3.114950318851830158e-01 6.222248053171519633e-02 -2.901952143293850539e-01 -2.801386267307843236e-01
1.536357772022716262e+01 2.841806526195542193e-01 3.529280091766200111e-02 -2.557894866557617330e-01 -2.572190674259546839e-01
