time[s] x1[m] x2[m] x1_dot[m/s] x2_dot[m/s]
0.000000000000000000e+00 0.000000000000000000e+00 0.000000000000000000e+00 0.000000000000000000e+00 0.000000000000000000e+00
9.999999999999999124e-05 3.714127852374646209e-08 4.463670532893731243e-15 7.428174737298360664e-04 1.343585465033290009e-10
1.100000000000000066e-03 4.493110082919240981e-06 6.537921057124020602e-12 8.168301530651324305e-03 1.842738383567285222e-08
1.110000000000000049e-02 4.564600024532989610e-04 1.283972045010601367e-08 8.213458839352991148e-02 4.081446050218065642e-06
6.065517346956830064e-02 1.343413743551342965e-02 6.990892252205456005e-06 4.383339102420786837e-01 4.435669272891698219e-04
1.606551734695683131e-01 9.019371021002019206e-02 3.061341355514691988e-04 1.075541285433204042e+00 7.418692950917080489e-03
2.606551734695683464e-01 2.226520175811569358e-01 2.001209541015625849e-03 1.532377588752088515e+00 2.960255180029120609e-02
3.606551734695683242e-01 3.881764058527935601e-01 6.920567579187219751e-03 1.744940533167100627e+00 7.245472288625377788e-02
4.606551734695683020e-01 5.661930906274583730e-01 1.722761102519866638e-02 1.784877236963691605e+00 1.372618708485846550e-01
5.606551734695682798e-01 7.374753325706191465e-01 3.503138991157453419e-02 1.595946348469249321e+00 2.216825529741502931e-01
6.606551734695682576e-01 8.771556508514251060e-01 6.200804545620838826e-02 1.172814178837920940e+00 3.192845994648866870e-01
7.606551734695682354e-01 9.708404589186891975e-01 9.899423120024195000e-02 7.007273060245871044e-01 4.200426981446644947e-01
8.606551734695682132e-01 1.017037848829834168e+00 1.457529658617804647e-01 2.290478058776199144e-01 5.128974171318821940e-01
9.606551734695681910e-01 1.019021074672969096e+00 2.009550249109740006e-01 -1.782414555115034438e-01 5.872503969567860471e-01
1.060655173469568169e+00 9.849111201225305701e-01 2.622856752017961868e-01 -4.749179358072851964e-01 6.341711417515167870e-01
1.160655173469568258e+00 9.302778245083288544e-01 3.266681064882976382e-01 -5.862539196932613494e-01 6.475936988134165517e-01
1.260655173469568346e+00 8.750795592202902373e-01 3.906156732565787548e-01 -4.837686192750151881e-01 6.255105166474730360e-01
1.360655173469568435e+00 8.367289544742247953e-01 4.506623187654231755e-01 -2.766767550539982468e-01 5.702813892163236531e-01
1.460655173469568524e+00 8.217408723352366273e-01 5.037433910892898936e-01 -1.608889015632852804e-02 4.872647951221203977e-01
1.560655173469568613e+00 8.332519021878467269e-01 5.474289512124833612e-01 2.432272200906050452e-01 3.836836402989607930e-01
1.660655173469568702e+00 8.697829407091945964e-01 5.800653698934258307e-01 4.800552144358530837e-01 2.676700327540303403e-01
1.760655173469568791e+00 9.273708280331359743e-01 6.008246222286146576e-01 6.631820576381672883e-01 1.474860191322875380e-01
1.860655173469568879e+00 1.000264996731711431e+00 6.096810651581213714e-01 7.800051931419330620e-01 3.082132681438411181e-02
1.960655173469568968e+00 1.079872586236334753e+00 6.073256537102347252e-01 7.909312535466481719e-01 -7.580465041101074053e-02
2.060655173469569057e+00 1.153760592692871789e+00 5.950091794443116422e-01 6.653478502005838457e-01 -1.678470847627907825e-01
2.160655173469569146e+00 1.209132182062906180e+00 5.743127552484765808e-01 4.229328154560575426e-01 -2.432721135459967599e-01
2.260655173469569235e+00 1.235135530000775361e+00 5.468986190648363888e-01 8.772384185845388815e-02 -3.024502569876821312e-01
2.360655173469569323e+00 1.225859511113930989e+00 5.142885047586377434e-01 -2.740094096080311070e-01 -3.476860006542515924e-01
2.460655173469569412e+00 1.180650674015223167e+00 4.777164125333762668e-01 -6.260807746976884136e-01 -3.822829511436535155e-01
2.560655173469569501e+00 1.103106073752224248e+00 4.380670782267658270e-01 -9.008197878456658536e-01 -4.097988664242250834e-01
2.660655173469569590e+00 1.005409538095006550e+00 3.959013044213379739e-01 -1.038601036056187921e+00 -4.329116359795243119e-01
2.760655173469569679e+00 8.974125227698939167e-01 3.515937981639521981e-01 -1.106094117190555837e+00 -4.527287228028288868e-01
2.860655173469569768e+00 7.876037207097704718e-01 3.054621495484636240e-01 -1.077190701963954167e+00 -4.693035807640280610e-01
2.960655173469569856e+00 6.844800556925632051e-01 2.578768750260430620e-01 -9.695847273282856005e-01 -4.815341364283702852e-01
3.060655173469569945e+00 5.967406822580525461e-01 2.093696096352025138e-01 -7.735410875698658373e-01 -4.873010067255686972e-01
3.160655173469570034e+00 5.306813518999434764e-01 1.607325150955508097e-01 -5.514280000451809993e-01 -4.835933043005439802e-01
3.260655173469570123e+00 4.854298831229894584e-01 1.130665283346069527e-01 -3.545838823533944417e-01 -4.674494694003253903e-01
3.360655173469570212e+00 4.591950328257903280e-01 6.773029060187005235e-02 -1.810353046590088000e-01 -4.367044010079308980e-01
3.460655173469570300e+00 4.467662839270576947e-01 2.625074001080081321e-02 -7.395733426476343297e-02 -3.902631793680269578e-01
3.560655173469570389e+00 4.434603661027903820e-01 -9.810772279088879333e-03 -1.948427625071441627e-03 -3.285100248232066256e-01
3.660655173469570478e+00 4.436727950779133511e-01 -3.899481203059367018e-02 -4.079823716480522264e-03 -2.531214071461903581e-01
3.760655173469570567e+00 4.425192162648054484e-01 -6.008484824995970891e-02 -1.278547774550161699e-02 -1.672421036184627285e-01
3.860655173469570656e+00 4.414845949964515959e-01 -7.221787624536002426e-02 -1.385712571698905285e-02 -7.460786426158885765e-02
3.960655173469570745e+00 4.382422548251354577e-01 -7.491405081025609425e-02 -5.576539362130079891e-02 2.077173730806856911e-02
4.060655173469570833e+00 4.302551949190816516e-01 -6.812487735333080940e-02 -9.888671492291803422e-02 1.143126980891764066e-01
4.160655173469570478e+00 4.200609879282400927e-01 -5.226341484114403746e-02 -1.002057036921169542e-01 2.015277991031693694e-01
4.260655173469570123e+00 4.102260691428359918e-01 -2.815535253772812399e-02 -9.508914754054313689e-02 2.786754445818298564e-01
4.360655173469569768e+00 4.024559034164173488e-01 3.031466064318758674e-03 -5.027670912218131644e-02 3.426563480421352947e-01
4.460655173469569412e+00 4.018274632781451139e-01 3.986880452074019476e-02 4.092747756014544075e-02 3.914681409666619372e-01
4.560655173469569057e+00 4.100926743170030808e-01 8.079239353182392225e-02 1.230072958767505775e-01 4.243133715105670278e-01
4.660655173469568702e+00 4.284041605360296989e-01 1.241951428059587803e-01 2.587033289315630591e-01 4.411211188584876486e-01
4.760655173469568346e+00 4.627513117777365403e-01 1.685227976157621099e-01 4.215248547484002906e-01 4.431466139444613650e-01
4.860655173469567991e+00 5.117309091304116375e-01 2.124053027910409730e-01 5.591225928098231268e-01 4.326023225612082856e-01
4.960655173469567636e+00 5.745051502855872405e-01 2.547067528899132904e-01 6.885611496773100804e-01 4.119755425970913487e-01
5.060655173469567281e+00 6.470980040038851744e-01 2.945533543541123400e-01 7.555212234159549567e-01 3.839143062230747638e-01
5.160655173469566925e+00 7.250713632132768094e-01 3.313158325700275020e-01 7.986400549956714778e-01 3.506397650105071429e-01
5.260655173469566570e+00 8.045720037828020255e-01 3.645733791045115413e-01 7.798037863358854294e-01 3.140989554389577165e-01
5.360655173469566215e+00 8.788951565748492900e-01 3.940696636809391529e-01 6.933784188996061637e-01 2.755515241720210007e-01
5.460655173469565860e+00 9.411332752881884645e-01 4.196293086498550928e-01 5.483680866199653892e-01 2.353452468516007701e-01
5.560655173469565504e+00 9.881564818455327304e-01 4.410721504719148367e-01 3.865559300127598408e-01 1.931384712870387599e-01
5.660655173469565149e+00 1.018053914242280422e+00 4.581714228431882918e-01 2.160471294801719622e-01 1.483626845052018750e-01
5.760655173469564794e+00 1.032060028190520118e+00 4.706410725845848186e-01 6.373256738803723120e-02 1.004919547057760432e-01
5.860655173469564438e+00 1.031363265614978930e+00 4.781600678510935509e-01 -6.824144214199351355e-02 4.934220744942525300e-02
5.960655173469564083e+00 1.020830868038621331e+00 4.804103848391199638e-01 -1.337930493341152605e-01 -4.742927244726545533e-03
6.060655173469563728e+00 1.004911519970227651e+00 4.771556732244411902e-01 -1.841983263775610336e-01 -6.049615166234266483e-02
6.160655173469563373e+00 9.852190426036040449e-01 4.683106491141578731e-01 -2.043893523744799712e-01 -1.162463390651210515e-01
6.260655173469563017e+00 9.634652445448742553e-01 4.539731229703938831e-01 -2.325236878076722136e-01 -1.700065522864376011e-01
6.360655173469562662e+00 9.397363868715284951e-01 4.344396833771240196e-01 -2.429616285351687555e-01 -2.198469221281574293e-01
6.460655173469562307e+00 9.121717277903137466e-01 4.101953802733519505e-01 -3.189064820805860290e-01 -2.639859226144330440e-01
6.560655173469561952e+00 8.763193584127576541e-01 3.818616183184820323e-01 -3.962309594265543411e-01 -3.015540509402631630e-01
6.660655173469561596e+00 8.317732139155048499e-01 3.501172852720002560e-01 -4.980044221354486544e-01 -3.321680006103336913e-01
6.760655173469561241e+00 7.778646888034352891e-01 3.156563097242477411e-01 -5.720136187936162298e-01 -3.559253294158286063e-01
6.860655173469560886e+00 7.183792352526782166e-01 2.791580741211024952e-01 -6.132229130934623296e-01 -3.729026898017699376e-01
6.960655173469560530e+00 6.564559581449820325e-01 2.413058904895875323e-01 -6.179541692664282104e-01 -3.829680638431255391e-01
7.060655173469560175e+00 5.959936612284746360e-01 2.028066434235811510e-01 -5.893446447515580111e-01 -3.857613070763646901e-01
7.160655173469559820e+00 5.382450027305186735e-01 1.644119965678043360e-01 -5.650528273255498446e-01 -3.808192074582744113e-01
7.260655173469559465e+00 4.845385766685814111e-01 1.269073583861082266e-01 -5.002830146143631973e-01 -3.679284749456491199e-01
7.360655173469559109e+00 4.381113932827717661e-01 9.110260974877118501e-02 -4.336490774109637014e-01 -3.467623433544193001e-01
7.460655173469558754e+00 3.979930106387811750e-01 5.783334515009094096e-02 -3.643522495544555539e-01 -3.172505462034780899e-01
7.560655173469558399e+00 3.649464499537123929e-01 2.792207399405543383e-02 -2.989704828023245220e-01 -2.796676342184981623e-01
7.660655173469558044e+00 3.391913769367032594e-01 2.148926273804498827e-03 -2.119910432435526126e-01 -2.346070033649625686e-01
7.760655173469557688e+00 3.214523975835273384e-01 -1.877385263833012199e-02 -1.468698123838171332e-01 -1.828081540440019970e-01
7.860655173469557333e+00 3.111054102978927371e-01 -3.422683040633798385e-02 -5.524178787691330639e-02 -1.254214051860910728e-01
7.960655173469556978e+00 3.089381322340243319e-01 -4.371140458404164375e-02 1.980920347710135587e-03 -6.366165748557631177e-02
8.060655173469557511e+00 3.105492510325865152e-01 -4.687181402206813674e-02 2.783579637818988511e-02 7.022488951212574326e-04
8.160655173469557155e+00 3.152198167829391440e-01 -4.356077342651491768e-02 7.583026698783909558e-02 6.538197131949557983e-02
8.260655173469556800e+00 3.261029295065274725e-01 -3.385272995689935643e-02 1.317709976649936443e-01 1.283486612273935790e-01
8.360655173469556445e+00 3.402250220479228204e-01 -1.801172720246337414e-02 1.511213095233370496e-01 1.876813704711152442e-01
8.460655173469556090e+00 3.560260518332393209e-01 3.489610858379080249e-03 1.614726893502513860e-01 2.411993485476905952e-01
8.560655173469555734e+00 3.728814892587318797e-01 2.996462874861793163e-02 1.811164520945879597e-01 2.868289675261988525e-01
8.660655173469555379e+00 3.932530736076805811e-01 6.053827841011166777e-02 2.317688850658614907e-01 3.229722486736101295e-01
8.760655173469555024e+00 4.199436220327559810e-01 9.421621907314695066e-02 3.014704462657273321e-01 3.488540385114256570e-01
8.860655173469554668e+00 4.534323768932504439e-01 1.299632724369050585e-01 3.696170871038340078e-01 3.643745868646431907e-01
8.960655173469554313e+00 4.939714605175699602e-01 1.667570804398883499e-01 4.413663296894417831e-01 3.698891257028237844e-01
9.060655173469553958e+00 5.415416586723762471e-01 2.036343363442782439e-01 5.032212778758093918e-01 3.662110328431340545e-01
9.160655173469553603e+00 5.922008372234165430e-01 2.397255738658284063e-01 4.994799102492633591e-01 3.542980961261754658e-01
9.260655173469553247e+00 6.399890729192175831e-01 2.742357865027449382e-01 4.498406026908256528e-01 3.346307550053574387e-01
9.360655173469552892e+00 6.817828593107628787e-01 3.063979599972206924e-01 3.891255055704756494e-01 3.073560817944839263e-01
9.460655173469552537e+00 7.178235370490194667e-01 3.354630493748539943e-01 3.287865260341253926e-01 2.727726204113928299e-01
9.560655173469552182e+00 7.479795654760910129e-01 3.607287232158523094e-01 2.798056146256995280e-01 2.314927599709521167e-01
9.660655173469551826e+00 7.741622390642610707e-01 3.815726871303690704e-01 2.451151544798718385e-01 1.845583194916040892e-01
9.760655173469551471e+00 7.975306387802721941e-01 3.975014820962348150e-01 2.207293186178208577e-01 1.334701892288086000e-01
9.860655173469551116e+00 8.175761846206989203e-01 4.081867745561265082e-01 1.826892980168139669e-01 7.997669696385506510e-02
9.960655173469550761e+00 8.351983555460459341e-01 4.134758066866419113e-01 1.681778899777122416e-01 2.586969354584387620e-02
1.006065517346955041e+01 8.493858228455388737e-01 4.134061053514580530e-01 1.081816169495633528e-01 -2.690415423481042068e-02
1.016065517346955005e+01 8.567717734317059630e-01 4.081867637272476590e-01 4.104872867964104444e-02 -7.692831782057964196e-02
1.026065517346954969e+01 8.566286634303749148e-01 3.981492176922405979e-01 -5.273431791719326855e-02 -1.231095257631688727e-01
1.036065517346954934e+01 8.454580547916087374e-01 3.837129144774019118e-01 -1.702813385778932653e-01 -1.648656770556691520e-01
1.046065517346954898e+01 8.220748741689621886e-01 3.653259442341990071e-01 -2.993651913782083285e-01 -2.021398572610298427e-01
1.056065517346954863e+01 7.869038401844482555e-01 3.434262937292741902e-01 -3.941575905741097063e-01 -2.351596904242730379e-01
1.066065517346954827e+01 7.442744299120676033e-01 3.184359356563568610e-01 -4.518226300519532224e-01 -2.639134329565059889e-01
1.076065517346954792e+01 6.987847128872987090e-01 2.907997630443164283e-01 -4.515940022774257989e-01 -2.879566236330955431e-01
1.086065517346954756e+01 6.538141972252511369e-01 2.610327200638917766e-01 -4.474631630304239382e-01 -3.063672681038520085e-01
1.096065517346954721e+01 6.094395502968360523e-01 2.297425043374221043e-01 -4.415083997066074906e-01 -3.182986369672920479e-01
1.106065517346954685e+01 5.665927382453468386e-01 1.976092352824951881e-01 -4.043111179934260058e-01 -3.231362981447876148e-01
1.116065517346954650e+01 5.282314679907431643e-01 1.653752469460389452e-01 -3.755908552316594706e-01 -3.201915734009527781e-01
1.126065517346954614e+01 4.912626344621394137e-01 1.338399137750467260e-01 -3.535399100308504461e-01 -3.091891651004043395e-01
1.136065517346954579e+01 4.580046152142342453e-01 1.038020698878440867e-01 -3.175525015152934061e-01 -2.902529183868249318e-01
1.146065517346954543e+01 4.273723147695563385e-01 7.604350356812977774e-02 -2.925458340290385539e-01 -2.637065390244239804e-01
1.156065517346954508e+01 4.004003273241995009e-01 5.129030693305299676e-02 -2.385281247710769326e-01 -2.302702557209733714e-01
1.166065517346954472e+01 3.810794456999858082e-01 3.019879771875013524e-02 -1.489685961509197298e-01 -1.905427642474443739e-01
1.176065517346954437e+01 3.693669321634180935e-01 1.337583510297298342e-02 -8.931617639708229472e-02 -1.450188961072380600e-01
1.186065517346954401e+01 3.634418765864823042e-01 1.354628370299433560e-03 -2.626373916155901045e-02 -9.470960863292106346e-02
1.196065517346954366e+01 3.634729603178549762e-01 -5.447637529228801373e-03 1.636078489550155807e-02 -4.086221187743634131e-02
1.206065517346954330e+01 3.652243569792966160e-01 -6.756040348280277497e-03 1.872396166356258759e-02 1.481512018334280034e-02
1.216065517346954294e+01 3.669197796041493986e-01 -2.499208685686989118e-03 8.877628310350335963e-03 7.005027811677440319e-02
1.226065517346954259e+01 3.668142527583689860e-01 7.156714394165255774e-03 -5.160098059938236781e-03 1.223685267180188302e-01
1.236065517346954223e+01 3.660149611817500870e-01 2.179743912559645863e-02 -1.557384363381163032e-02 1.693831707771452089e-01
1.246065517346954188e+01 3.642385551020018708e-01 4.078554995182024495e-02 -8.494149441047763732e-03 2.089833591615384567e-01
1.256065517346954152e+01 3.660963285174034798e-01 6.329607162025745193e-02 4.635007212167846502e-02 2.396791730146518584e-01
1.266065517346954117e+01 3.726901268361140773e-01 8.840495300828273006e-02 8.452140896192633646e-02 2.608837806024526529e-01
1.276065517346954081e+01 3.848672446793145463e-01 1.151477571123116217e-01 1.727530304575375930e-01 2.723780660740336979e-01
1.286065517346954046e+01 4.081449327150499240e-01 1.425822014439904195e-01 2.904174630218228081e-01 2.749457477692993645e-01
1.296065517346954010e+01 4.429866486971456574e-01 1.698916190843093310e-01 4.062526164804049489e-01 2.701664239126667644e-01
1.306065517346953975e+01 4.883004841831378173e-01 1.964320576029984777e-01 4.927323493239340046e-01 2.598756959925169752e-01
1.316065517346953939e+01 5.398405422049993296e-01 2.217389625296570799e-01 5.271024936909441960e-01 2.457324900989113214e-01
1.326065517346953904e+01 5.926701739625676035e-01 2.454871822998937192e-01 5.309593215647271380e-01 2.288377626136808007e-01
1.336065517346953868e+01 6.446755249859087433e-01 2.674405641660732025e-01 4.931566505412974255e-01 2.099464318935392315e-01
1.346065517346953833e+01 6.894767165336215253e-01 2.874177836410231612e-01 3.993883270462702528e-01 1.892717254348995626e-01
1.356065517346953797e+01 7.223923702103521860e-01 3.052192157793182092e-01 2.475349869143925463e-01 1.662972772920112974e-01
1.366065517346953762e+01 7.394930758276982985e-01 3.205624429699429623e-01 1.044357066701221692e-01 1.398926921078750274e-01
1.376065517346953726e+01 7.444667399287904219e-01 3.330519370747583308e-01 2.265523845262989999e-03 1.091357940672516846e-01
1.386065517346953690e+01 7.421082082818797332e-01 3.422395636760143245e-01 -4.277154798559540394e-02 7.391524635286275680e-02
1.396065517346953655e+01 7.365781243729156991e-01 3.477120410203468071e-01 -6.174744566753141012e-02 3.502073589007424076e-02
1.406065517346953619e+01 7.305698921427059567e-01 3.491671856069137880e-01 -6.073202239750843251e-02 -6.155045572381973029e-03
1.416065517346953584e+01 7.236738313285645541e-01 3.464616892030816797e-01 -8.132475903992925081e-02 -4.792121676184444429e-02
1.426065517346953548e+01 7.128914697058882366e-01 3.396115273005326229e-01 -1.402094643765016968e-01 -8.885139976403438888e-02
1.436065517346953513e+01 6.958410059742436982e-01 3.287501639506376638e-01 -1.961071012831346327e-01 -1.280174247613899419e-01
1.446065517346953477e+01 6.743693893204276701e-01 3.140953548553271912e-01 -2.305083755606906759e-01 -1.645581643980404962e-01
1.456065517346953442e+01 6.499538138110623198e-01 2.959603881438614414e-01 -2.594701764313319670e-01 -1.974454960891308675e-01
1.466065517346953406e+01 6.221987138454621036e-01 2.747597448825264133e-01 -2.953772936370218649e-01 -2.257383997835809841e-01
1.476065517346953371e+01 5.909236133710190630e-01 2.509887077178562520e-01 -3.302915655593591238e-01 -2.487581283955658806e-01
1.486065517346953335e+01 5.562348424337483221e-01 2.251993989664831386e-01 -3.607422003515780018e-01 -2.660457502146839071e-01
1.496065517346953300e+01 5.203933854575929496e-01 1.979816489704356308e-01 -3.455076036812586571e-01 -2.772553703427453886e-01
1.506065517346953264e+01 4.875239012163370411e-01 1.699728368493183261e-01 -3.180733270761554876e-01 -2.817346900665526621e-01
1.516065517346953229e+01 4.566515490924141218e-01 1.418778066112225400e-01 -2.919795740514845028e-01 -2.789317853966148952e-01
1.526065517346953193e+01 4.301847153622596620e-01 1.144392037134422391e-01 -2.372762422457557197e-01 -2.685432815539915974e-01
1.536065517346953158e+01 4.090109824824516016e-01 8.843238972009290211e-02 -1.873254149156652892e-01 -2.502711815604186096e-01
