time[s] x1[m] x2[m] x1_dot[m/s] x2_dot[m/s]
0.000000000000000000e+00 0.000000000000000000e+00 0.000000000000000000e+00 0.000000000000000000e+00 0.000000000000000000e+00
9.999999999999999124e-05 5.466884770448250907e-08 6.570217427499046826e-15 1.093342315388003442e-03 1.977645420163491171e-10
1.100000000000000066e-03 6.610734817086556246e-06 9.620440079307708833e-12 1.201531762543994915e-02 2.711270161084306744e-08
1.110000000000000049e-02 6.688255968824847976e-04 1.884170893728611481e-08 1.200727386319590667e-01 5.984424685780200681e-06
6.256316125243670256e-02 2.050247696371190406e-02 1.141257623751317734e-05 6.403025907570681907e-01 6.998923490065286739e-04
1.625631612524366942e-01 1.276229931778225801e-01 4.539742263505450789e-04 1.457809609076813562e+00 1.077130075537036276e-02
2.625631612524367275e-01 3.018992698910211714e-01 2.853922960191004887e-03 1.967030499015311795e+00 4.131584067236745983e-02
3.625631612524367053e-01 5.095413014916047034e-01 9.601686563735115781e-03 2.142670091458775072e+00 9.819643442884559703e-02
4.625631612524366831e-01 7.235889266991301083e-01 2.338193531894441901e-02 2.102724023608270265e+00 1.816029870368732202e-01
5.625631612524366609e-01 9.217891546922976076e-01 4.666927978516374753e-02 1.815402862720156607e+00 2.872661505367082313e-01
6.625631612524366387e-01 1.078931460881282556e+00 8.129089370795428149e-02 1.309867820356917179e+00 4.064709145832139936e-01
7.625631612524366165e-01 1.184578498687090420e+00 1.280127369816858873e-01 8.123922056510962664e-01 5.271630407377352334e-01
8.625631612524365943e-01 1.242767685019740220e+00 1.863632986891283205e-01 3.652131357372874754e-01 6.370810008951591774e-01
9.625631612524365721e-01 1.261221944535960038e+00 2.547019180824950935e-01 1.807559017175558447e-02 7.252693005654804459e-01
1.062563161252436661e+00 1.250380378494431399e+00 3.304008364338473225e-01 -2.038062934767764234e-01 7.830680220999430841e-01
1.162563161252436750e+00 1.226535323528797461e+00 4.101159614716303192e-01 -2.446348513227294408e-01 8.050171789739942740e-01
1.262563161252436839e+00 1.208067793180390259e+00 4.901586498667354075e-01 -9.818979533022373363e-02 7.897455745792461013e-01
1.362563161252436927e+00 1.207825974075986020e+00 5.669102715914060564e-01 8.859341184339716846e-02 7.398898271237538404e-01
1.462563161252437016e+00 1.226058020547317051e+00 6.371436257919054214e-01 2.753184771735790459e-01 6.602920868331535464e-01
1.562563161252437105e+00 1.261273078667546121e+00 6.981772304178617272e-01 4.220013408475494776e-01 5.569606369523245615e-01
1.662563161252437194e+00 1.309562792429039169e+00 7.479618953620809085e-01 5.364815596796035368e-01 4.364260045047841374e-01
1.762563161252437283e+00 1.367141294250882488e+00 7.851131033375903234e-01 6.113528200157476444e-01 3.054067058091463616e-01
1.862563161252437371e+00 1.430821243299190471e+00 8.089148773343075582e-01 6.538013541652786254e-01 1.705277636480451442e-01
1.962563161252437460e+00 1.495734622157425697e+00 8.192992558549720972e-01 6.297471417222594292e-01 3.803233625137886209e-02
2.062563161252437549e+00 1.553415813316582739e+00 8.167745492746307789e-01 5.098043435493652131e-01 -8.692577634111130214e-02
2.162563161252437638e+00 1.595302585126198158e+00 8.022847284401182222e-01 3.147353857480081896e-01 -2.008151127438260741e-01
2.262563161252437727e+00 1.614253495024646545e+00 7.770468822661715791e-01 6.025055258778561074e-02 -3.016922175885854984e-01
2.362563161252437816e+00 1.607358382307714217e+00 7.424015037103537384e-01 -1.968004054509284728e-01 -3.889320496515453751e-01
2.462563161252437904e+00 1.575199590973554775e+00 6.997139949711830287e-01 -4.442871372627666959e-01 -4.625813837088333380e-01
2.562563161252437993e+00 1.520557010632703543e+00 6.503237413077566087e-01 -6.262357038740778981e-01 -5.230630988628628408e-01
2.662563161252438082e+00 1.453835023171596630e+00 5.955396309737944760e-01 -7.040254839818528287e-01 -5.703613993301682727e-01
2.762563161252438171e+00 1.379538915969053203e+00 5.367150037824777176e-01 -7.760888960875699238e-01 -6.037758635357193260e-01
2.862563161252438260e+00 1.300194465669672006e+00 4.752616281792684250e-01 -8.075944405258811409e-01 -6.228726342921524495e-01
2.962563161252438348e+00 1.218937881724161620e+00 4.126282255774695873e-01 -8.072413515905656478e-01 -6.273434876162864438e-01
3.062563161252438437e+00 1.140989810538193927e+00 3.502882265990562849e-01 -7.433611283291965410e-01 -6.169441255133975011e-01
3.162563161252438526e+00 1.070566110843136798e+00 2.897492519815220713e-01 -6.715068138261304220e-01 -5.912671341730132424e-01
3.262563161252438615e+00 1.005760062377923036e+00 2.325410801482374612e-01 -6.210418359003069266e-01 -5.504353900905085695e-01
3.362563161252438704e+00 9.468789741957799322e-01 1.801361390385171346e-01 -5.627622288396243455e-01 -4.953977562326757345e-01
3.462563161252438793e+00 8.921008636577625328e-01 1.338836684002401856e-01 -5.291378881133137480e-01 -4.277287859152776317e-01
3.562563161252438881e+00 8.421774010502692809e-01 9.493513511372481117e-02 -4.708207865442448625e-01 -3.497161784828387021e-01
3.662563161252438970e+00 7.966897994039598974e-01 6.420088525193151652e-02 -4.408244899359045621e-01 -2.639188595814920824e-01
3.762563161252439059e+00 7.558883012068171592e-01 4.230779629932113206e-02 -3.595618330854711275e-01 -1.734067960474701686e-01
3.862563161252439148e+00 7.261668120033936136e-01 2.958811927459562702e-02 -2.400571009401569755e-01 -8.082172306444446175e-02
3.962563161252439237e+00 7.062245666196953486e-01 2.613674034538436899e-02 -1.646532815052296206e-01 1.153866982651478856e-02
4.062563161252438881e+00 6.928932412850044020e-01 3.179625637689384443e-02 -9.832034226924152298e-02 1.009109761017755874e-01
4.162563161252438526e+00 6.876057312301991908e-01 4.612720962045421813e-02 -8.103481497819489676e-03 1.845539801846078354e-01
4.262563161252438171e+00 6.898805220741993649e-01 6.843927788667443501e-02 4.850035717807563151e-02 2.601543731571546725e-01
4.362563161252437816e+00 6.976369992456581404e-01 9.781288870977408734e-02 1.115973696371142104e-01 3.254191351600808080e-01
4.462563161252437460e+00 7.127296602928517855e-01 1.331174788737573833e-01 1.867381079724453885e-01 3.785387727882181252e-01
4.562563161252437105e+00 7.330794687489129435e-01 1.730747810569064904e-01 2.144810238943617442e-01 4.182739036578830838e-01
4.662563161252436750e+00 7.575081351185652956e-01 2.162874800044965184e-01 2.904355828489194047e-01 4.435149689662672978e-01
4.762563161252436394e+00 7.917802485468110607e-01 2.612945232650705774e-01 3.857220708379522356e-01 4.542853924215066730e-01
4.862563161252436039e+00 8.336952971096297516e-01 3.066912035828178729e-01 4.566333922298055903e-01 4.514623319511397170e-01
4.962563161252435684e+00 8.836546680649954855e-01 3.511739514302383847e-01 5.367079410352399993e-01 4.362726602901944029e-01
5.062563161252435329e+00 9.392209109118466737e-01 3.935908353029389795e-01 5.718751574571454555e-01 4.104255043514767332e-01
5.162563161252434973e+00 9.987243903442769577e-01 4.329600718649495583e-01 6.178050268662309552e-01 3.756320221343084076e-01
5.262563161252434618e+00 1.061255933533812312e+00 4.684876789610403214e-01 6.251162753209640321e-01 3.339387951335053839e-01
5.362563161252434263e+00 1.122300848770062309e+00 4.995805573836229474e-01 5.848169512518667235e-01 2.872137335329117414e-01
5.462563161252433908e+00 1.176663300067089191e+00 5.258087044080212991e-01 5.031184435598128335e-01 2.368204715055015341e-01
5.562563161252433552e+00 1.222925104277406527e+00 5.468558401263915458e-01 4.165453205961335836e-01 1.837659844248362706e-01
5.662563161252433197e+00 1.259590127662650660e+00 5.625053784967511961e-01 3.216082502997492099e-01 1.290134275363999383e-01
5.762563161252432842e+00 1.287558807863311117e+00 5.726341012866734692e-01 2.336693745478404249e-01 7.353267866606993941e-02
5.862563161252432486e+00 1.306208961554392145e+00 5.772225459007914727e-01 1.462564874402095261e-01 1.836985200949260016e-02
5.962563161252432131e+00 1.318606720121660247e+00 5.763561627063560344e-01 1.054019656620656387e-01 -3.532687117373011637e-02
6.062563161252431776e+00 1.326346881940783318e+00 5.702588680076231542e-01 4.444201185881542504e-02 -8.599107068438457957e-02
6.162563161252431421e+00 1.328015942838841168e+00 5.593026063609636278e-01 -9.611643466839354943e-03 -1.323136247488035655e-01
6.262563161252431065e+00 1.322970610401109859e+00 5.439777044162765751e-01 -9.522705034696538062e-02 -1.732187588780559895e-01
6.362563161252430710e+00 1.310001715210134643e+00 5.248587208217345701e-01 -1.666959941962666281e-01 -2.081213703971708795e-01
6.462563161252430355e+00 1.286358785327735621e+00 5.025633224615118078e-01 -3.161046358961809855e-01 -2.367844122538594054e-01
6.562563161252430000e+00 1.248008422678774654e+00 4.776832722429096290e-01 -4.453681523490186089e-01 -2.599931891216561430e-01
6.662563161252429644e+00 1.196554761655502785e+00 4.507142737086286544e-01 -5.831189479068918935e-01 -2.787324608516028035e-01
6.762563161252429289e+00 1.133742176306953287e+00 4.220489850102264739e-01 -6.594134732306313751e-01 -2.940752329462294479e-01
6.862563161252428934e+00 1.066427889120215688e+00 3.919961750266680034e-01 -6.794066394143480903e-01 -3.064891454336386989e-01
6.962563161252428579e+00 9.996314718609893291e-01 3.608564599647168247e-01 -6.471764980428434955e-01 -3.157223567482494442e-01
7.062563161252428223e+00 9.383345852178291979e-01 3.289857694025625223e-01 -5.782048853546620792e-01 -3.209204715216757986e-01
7.162563161252427868e+00 8.831709936500620195e-01 2.968450286679423789e-01 -5.257419345491446405e-01 -3.209574648289972854e-01
7.262563161252427513e+00 8.348118557460955103e-01 2.649942668243137622e-01 -4.332301945116291408e-01 -3.149789100996161495e-01
7.362563161252427157e+00 7.957340413869219420e-01 2.340834248985895760e-01 -3.577749525906830375e-01 -3.019975176593640009e-01
7.462563161252426802e+00 7.631091704383521357e-01 2.048470531065315625e-01 -2.914823904426296353e-01 -2.814586896805546523e-01
7.562563161252426447e+00 7.366282425332861816e-01 1.780459702355691454e-01 -2.423038686913904227e-01 -2.533144570568747755e-01
7.662563161252426092e+00 7.157161264540886636e-01 1.544239119922477255e-01 -1.725034833448790828e-01 -2.179716518150300320e-01
7.762563161252425736e+00 7.004941095766966663e-01 1.346724688906135170e-01 -1.366328672126116972e-01 -1.760376664440164163e-01
7.862563161252425381e+00 6.900834325639332301e-01 1.193982200545607025e-01 -6.635324738035032477e-02 -1.286305528457834246e-01
7.962563161252425026e+00 6.853019074837063407e-01 1.090920220681342728e-01 -4.076268556402774801e-02 -7.688940649965013419e-02
8.062563161252425559e+00 6.810405922983001625e-01 1.041058310833392064e-01 -4.566294161915985389e-02 -2.259861381601412089e-02
8.162563161252425203e+00 6.774977610124932603e-01 1.045804628682183574e-01 -1.091871967661295351e-02 3.195640207384452258e-02
8.262563161252424848e+00 6.793478579140076468e-01 1.104454433992645424e-01 3.543530027282496692e-02 8.496830912044005257e-02
8.362563161252424493e+00 6.831418443752506064e-01 1.214682239977099010e-01 4.235271230004819532e-02 1.347882685861050978e-01
8.462563161252424138e+00 6.875972276438501174e-01 1.372314732929207914e-01 4.348387308386549716e-02 1.794627029250484562e-01
8.562563161252423782e+00 6.925066929062979604e-01 1.571277580479314429e-01 6.212398625535260621e-02 2.171673978276425498e-01
8.662563161252423427e+00 7.012830603615040070e-01 1.803890074240517838e-01 1.198495884001878758e-01 2.466230570349894347e-01
8.762563161252423072e+00 7.171722425711902771e-01 2.061633217729228196e-01 1.960546218662234663e-01 2.674291881789327974e-01
8.862563161252422717e+00 7.402115739150691986e-01 2.335928627420189307e-01 2.658126578971417575e-01 2.797841141150858579e-01
8.962563161252422361e+00 7.703666053744149256e-01 2.618550923417830023e-01 3.373163142950281745e-01 2.841991483679340291e-01
9.062563161252422006e+00 8.074165214693489467e-01 2.901962632120967944e-01 3.949120240127906856e-01 2.815271684263228047e-01
9.162563161252421651e+00 8.465137287978242719e-01 3.179531581750413283e-01 3.760462145286494473e-01 2.726018756995368664e-01
9.262563161252421295e+00 8.813094279945601350e-01 3.445136325464599469e-01 3.146418081856950377e-01 2.575766951732703647e-01
9.362563161252420940e+00 9.095961796779269415e-01 3.692580078627780704e-01 2.578409330431454816e-01 2.362484848274704619e-01
9.462563161252420585e+00 9.333066644567318271e-01 3.915562128666545405e-01 2.147683979478735017e-01 2.087208623057071888e-01
9.562563161252420230e+00 9.534959280984726115e-01 4.108138457394244769e-01 1.969311215046523900e-01 1.755656859034772088e-01
9.662563161252419874e+00 9.732374439145108358e-01 4.265192490364771993e-01 1.997051057587650724e-01 1.379208712041780083e-01
9.762563161252419519e+00 9.940138555733587511e-01 4.383028907103218019e-01 2.128135615325341679e-01 9.743458685537742525e-02
9.862563161252419164e+00 1.014781350913180447e+00 4.459727082409586929e-01 2.055406628893732546e-01 5.593184966818892656e-02
9.962563161252418809e+00 1.036307250809416214e+00 4.495129931879812690e-01 2.210863388911392668e-01 1.515680324265250567e-02
1.006256316125241845e+01 1.056509805450843498e+00 4.490891216844565270e-01 1.738334922183006337e-01 -2.310640398878646001e-02
1.016256316125241810e+01 1.071038298914438469e+00 4.450093244066732900e-01 1.183543845752131202e-01 -5.784584711904074139e-02
1.026256316125241774e+01 1.078911961494715355e+00 4.376583132716245772e-01 2.844500591399369560e-02 -8.845981062292890273e-02
1.036256316125241739e+01 1.075961891180211571e+00 4.274551407819638937e-01 -8.627845786004975648e-02 -1.149564205740469386e-01
1.046256316125241703e+01 1.061131474277792197e+00 4.147864776115629537e-01 -2.118988540818880495e-01 -1.378828028166606823e-01
1.056256316125241668e+01 1.035378354122562961e+00 3.999715549911165846e-01 -2.912616975776367578e-01 -1.579970192853060729e-01
1.066256316125241632e+01 1.003957214501212336e+00 3.832696845602497349e-01 -3.298309799231662343e-01 -1.756216403162639272e-01
1.076256316125241597e+01 9.718423223998857718e-01 3.649379662593928986e-01 -3.077128930121418304e-01 -1.904926389495792405e-01
1.086256316125241561e+01 9.416712169065892812e-01 3.452908212367636898e-01 -2.974343059955548707e-01 -2.017901742340639237e-01
1.096256316125241526e+01 9.121114908463703319e-01 3.247207899620908056e-01 -2.972894434288186893e-01 -2.088708958672979010e-01
1.106256316125241490e+01 8.833715789479394953e-01 3.036683030935536931e-01 -2.652045814311198013e-01 -2.113904591260689081e-01
1.116256316125241455e+01 8.581587195738867857e-01 2.826119513814872031e-01 -2.559408251446076976e-01 -2.088549268098021661e-01
1.126256316125241419e+01 8.320469005556070385e-01 2.620672500801982108e-01 -2.530887844978544909e-01 -2.012275713886066408e-01
1.136256316125241383e+01 8.080158196488997913e-01 2.425276490873561064e-01 -2.351217254685064595e-01 -1.887661118150682493e-01
1.146256316125241348e+01 7.846805089745730877e-01 2.244653346636867608e-01 -2.276558375969592873e-01 -1.717752196801599351e-01
1.156256316125241312e+01 7.637519134021063527e-01 2.083047095394653658e-01 -1.800242232209670334e-01 -1.508083669667427962e-01
1.166256316125241277e+01 7.503120087543232453e-01 1.944302474063435981e-01 -9.153344010458683289e-02 -1.260266165616932832e-01
1.176256316125241241e+01 7.437631040465527699e-01 1.832306940180853105e-01 -4.436729938890034836e-02 -9.733526037944097153e-02
1.186256316125241206e+01 7.417614588708760781e-01 1.750781730927703506e-01 7.733990744549654184e-03 -6.519405592426644191e-02
1.196256316125241170e+01 7.443804461831662334e-01 1.702857216189928580e-01 3.126912927425350847e-02 -3.025642291135819534e-02
1.206256316125241135e+01 7.463132282400012363e-01 1.690813804321480707e-01 8.519862082703236195e-03 6.290169717122373605e-03
1.216256316125241099e+01 7.457860397658661045e-01 1.715368711954314285e-01 -2.647841927498031933e-02 4.262526917529558396e-02
1.226256316125241064e+01 7.409925807736823522e-01 1.775313853489244587e-01 -6.153631782585870791e-02 7.671263961200128212e-02
1.236256316125241028e+01 7.335536214974617275e-01 1.867399569920156210e-01 -9.343213615106789327e-02 1.066220939438105170e-01
1.246256316125240993e+01 7.230586199767230493e-01 1.986594423828487443e-01 -1.020339039260015207e-01 1.306616715158159525e-01
1.256256316125240957e+01 7.151216822739110412e-01 2.126400797615118909e-01 -5.786729650657437135e-02 1.477713668683262316e-01
1.266256316125240922e+01 7.101661448763741946e-01 2.279762948624346475e-01 -4.278533839897135510e-02 1.577499461905678413e-01
1.276256316125240886e+01 7.089300645095375497e-01 2.439493769761264808e-01 3.450310238400782631e-02 1.605534961456612231e-01
1.286256316125240851e+01 7.178948601506719429e-01 2.598794421162918256e-01 1.409386900594587766e-01 1.571496069437668952e-01
1.296256316125240815e+01 7.371337977128229468e-01 2.752277283831456867e-01 2.435798487827572911e-01 1.492063769529702322e-01
1.306256316125240780e+01 7.653586066359212570e-01 2.896287896231926062e-01 3.133323835797039991e-01 1.384904308547234841e-01
1.316256316125240744e+01 7.981106852514260330e-01 3.028820404119241250e-01 3.309926473680286918e-01 1.264391181212262683e-01
1.326256316125240708e+01 8.310471980347929888e-01 3.148986042398007612e-01 3.334040725147699447e-01 1.138420009021220841e-01
1.336256316125240673e+01 8.636905080846334348e-01 3.256509749947040233e-01 3.030131520973256554e-01 1.012431978646356756e-01
1.346256316125240637e+01 8.902447496986415354e-01 3.351498993443631225e-01 2.274158536104464168e-01 8.870504096052048149e-02
1.356256316125240602e+01 9.070879360425534443e-01 3.433746533024423231e-01 9.895398679798503294e-02 7.561625486030199017e-02
1.366256316125240566e+01 9.114115053105424913e-01 3.502148392083559991e-01 1.943204799368714042e-03 6.080242663751046772e-02
1.376256316125240531e+01 9.090651594284118175e-01 3.554514720230786406e-01 -4.003351515310984293e-02 4.350357545783124780e-02
1.386256316125240495e+01 9.057572864110878808e-01 3.588377244349711948e-01 -2.113116979811414595e-02 2.390712926263755672e-02
1.396256316125240460e+01 9.049713365822511513e-01 3.601902297010370901e-01 9.363579645675693813e-03 3.034072942601852979e-03
1.406256316125240424e+01 9.077790627867113882e-01 3.594464599679094707e-01 3.968023288872665755e-02 -1.777988894808930909e-02
1.416256316125240389e+01 9.112839307125195631e-01 3.566782780041926615e-01 2.242143927712514362e-02 -3.729822472019749674e-02
1.426256316125240353e+01 9.101164044818769172e-01 3.520487837252923580e-01 -5.375542724704965303e-02 -5.499119910490361807e-02
1.436256316125240318e+01 9.008188254086203495e-01 3.457316192566627366e-01 -1.260605886641143480e-01 -7.113368778135012449e-02
1.446256316125240282e+01 8.858292833962895241e-01 3.378620427903299417e-01 -1.697611442390858927e-01 -8.606532783753899352e-02
1.456256316125240247e+01 8.672211321529376127e-01 3.285583041358700607e-01 -2.038494182542421040e-01 -9.980142704177837054e-02
1.466256316125240211e+01 8.449241116160983722e-01 3.179438779410175830e-01 -2.405114007258727371e-01 -1.122774241585801636e-01
1.476256316125240176e+01 8.194134235090976270e-01 3.061451648032272876e-01 -2.687639005538646764e-01 -1.234807653918126163e-01
1.486256316125240140e+01 7.915163023887382687e-01 2.932922043635485809e-01 -2.845204979670699630e-01 -1.333461233728567841e-01
1.496256316125240104e+01 7.647105343776443576e-01 2.795285164389609833e-01 -2.386389926622615731e-01 -1.416041567964079761e-01
1.506256316125240069e+01 7.439726808349200748e-01 2.650566966456130991e-01 -1.852887218422085425e-01 -1.473049058744831941e-01
1.516256316125240033e+01 7.273699489498041126e-01 2.501857930769164629e-01 -1.383587261934036139e-01 -1.494649420501194814e-01
1.526256316125239998e+01 7.172546431725836946e-01 2.353088566920296387e-01 -6.601172623752447899e-02 -1.472638465344337788e-01
1.536256316125239962e+01 7.135384796919534978e-01 2.209084875852185548e-01 -1.159302006360764248e-02 -1.398149062625598238e-01
